2020-01-19 1014 2572.942 0 0
2020-02-07 1008 2561.974 -10.968 -0.428
2020-02-15 1011 2573.528 11.554 0.449
2020-02-16 1011 2573.528 0 0
2020-02-17 1011 2569.812 -3.716 -0.145
2020-02-18 1012 2569.812 0 0
2020-02-19 1005 2581.892 12.08 0.468
2020-02-20 1004 2584.635 2.743 0.106
2020-02-21 1002 2592.537 7.902 0.305
2020-02-22 1004 2584.012 -8.525 -0.33
2020-02-23 1005 2584.012 0 0
2020-02-24 997 2584.012 0 0
2020-02-25 1000 2558.747 -25.265 -0.987
2020-02-26 995 2533.54 -25.207 -0.995
2020-02-27 983 2525.531 -8.009 -0.317
2020-02-28 980 2493.031 -32.5 -1.304
2020-02-29 985 2473.835 -19.196 -0.776
2020-03-01 988 2473.835 0 0
2020-03-02 996 2473.835 0 0
2020-03-03 983 2519.782 45.947 1.823
2020-03-04 989 2498.982 -20.8 -0.832
2020-03-05 973 2536.498 37.516 1.479
2020-03-06 971 2512.297 -24.201 -0.963
2020-03-07 971 2507.743 -4.554 -0.182
2020-03-08 972 2507.743 0 0
2020-03-09 953 2507.743 0 0
2020-03-10 951 2478.762 -28.981 -1.169
2020-03-11 926 2506.118 27.356 1.092
2020-03-12 911 2454.247 -51.871 -2.114
2020-03-13 937 2374.674 -79.573 -3.351
2020-03-14 919 2426.797 52.123 2.148
2020-03-15 919 2426.797 0 0
2020-03-16 896 2426.797 0 0
2020-03-17 917 2337.171 -89.626 -3.835
2020-03-18 889 2387.654 50.483 2.114
2020-03-19 895 2355.682 -31.972 -1.357
2020-03-20 898 2363.613 7.931 0.336
2020-03-21 915 2321.554 -42.059 -1.812
2020-03-22 915 2321.554 0 0
2020-03-23 905 2321.554 0 0
2020-03-24 902 2310.736 -10.818 -0.468
2020-03-25 912 2348.291 37.555 1.599
2020-03-26 930 2349.052 0.761 0.032
2020-03-27 935 2380.046 30.994 1.302
2020-03-28 931 2356.373 -23.673 -1.005
2020-03-29 931 2356.373 0 0
2020-03-30 931 2356.373 0 0
2020-03-31 928 2368.623 12.25 0.517
2020-04-01 934 2350.348 -18.275 -0.778
2020-04-02 932 2336.909 -13.439 -0.575
2020-04-03 928 2342.132 5.223 0.223
2020-04-04 933 2328.263 -13.869 -0.596
2020-04-05 933 2328.263 0 0
2020-04-06 933 2328.263 0 0
2020-04-07 926 2387.687 59.424 2.489
2020-04-08 944 2394.992 7.305 0.305
2020-04-10 956 2421.502 26.51 1.095
2020-04-11 956 2421.502 0 0
2020-04-12 956 2421.502 0 0
2020-04-13 948 2421.502 0 0
2020-04-14 956 2421.36 -0.142 -0.006
2020-04-15 942 2453.607 32.247 1.314
2020-04-17 942 2454.363 0.756 0.031
2020-04-18 949 2469.229 14.866 0.602
2020-04-19 949 2469.229 0 0
2020-04-20 947 2469.229 0 0
2020-04-21 943 2453.089 -16.14 -0.658
2020-04-23 947 2447.661 -5.428 -0.222
2020-04-24 946 2444.464 -3.197 -0.131
2020-04-25 936 2468.736 24.272 0.983
2020-04-26 936 2468.736 0 0
2020-04-27 941 2468.736 0 0
2020-04-28 949 2479.324 10.588 0.427
2020-04-29 957 2478.8 -0.524 -0.021
2020-04-30 955 2491.724 12.924 0.519
2020-05-01 959 2471.765 -19.959 -0.807
2020-05-02 961 2457.903 -13.862 -0.564
2020-05-03 961 2457.903 0 0
2020-05-04 952 2457.903 0 0
2020-05-05 947 2472.307 14.404 0.583
2020-05-06 946 2480.6 8.293 0.334
2020-05-07 942 2488.414 7.814 0.314
2020-05-08 952 2480.945 -7.469 -0.301
2020-05-09 948 2501.461 20.516 0.82
2020-05-10 948 2501.461 0 0
2020-05-11 946 2501.461 0 0
2020-05-12 944 2509.767 8.306 0.331
2020-05-13 953 2494.686 -15.081 -0.605
2020-05-14 947 2480.947 -13.739 -0.554
2020-05-15 945 2484.307 3.36 0.135
2020-05-16 938 2492.652 8.345 0.335
2020-05-17 938 2492.652 0 0
2020-05-18 947 2492.652 0 0
2020-05-19 937 2516.696 24.044 0.955
2020-05-20 949 2512.97 -3.726 -0.148
2020-05-21 952 2510.328 -2.642 -0.105
2020-05-22 942 2513.139 2.811 0.112
2020-05-23 939 2515.465 2.326 0.092
2020-05-24 939 2515.465 0 0
2020-05-25 943 2515.465 0 0
2020-05-26 952 2515.465 0 0
2020-05-27 953 2523.867 8.402 0.333
2020-05-28 946 2545.438 21.571 0.847
2020-05-29 951 2542.51 -2.928 -0.115
2020-05-30 950 2550.679 8.169 0.32
2020-05-31 950 2550.679 0 0
2020-06-01 959 2550.679 0 0
2020-06-02 967 2548.191 -2.488 -0.098
2020-06-03 980 2551.536 3.345 0.131
2020-06-04 984 2563.277 11.741 0.458
2020-06-05 989 2560.321 -2.956 -0.115
2020-06-06 987 2578.598 18.277 0.709
2020-06-07 987 2578.598 0 0
2020-06-08 988 2578.598 0 0
2020-06-09 991 2576.963 -1.635 -0.063
2020-06-10 998 2567.54 -9.423 -0.367
2020-06-11 988 2559.048 -8.492 -0.332
2020-06-12 992 2528.843 -30.205 -1.194
2020-06-13 988 2530.345 1.502 0.059
2020-06-14 988 2530.345 0 0
2020-06-15 982 2530.345 0 0
2020-06-16 981 2538.657 8.312 0.327
2020-06-17 983 2555.955 17.298 0.677
2020-06-18 987 2555.955 0 0
2020-06-19 992 2553.945 -2.01 -0.079
2020-06-20 990 2552.589 -1.356 -0.053
2020-06-21 990 2552.589 0 0
2020-06-22 992 2552.589 0 0
2020-06-23 995 2563.267 10.678 0.417
2020-06-24 995 2563.267 0 0
2020-06-25 996 2541.064 -22.203 -0.874
2020-06-26 980 2547.603 6.539 0.257
2020-06-27 982 2533.393 -14.21 -0.561
2020-06-28 982 2533.393 0 0
2020-06-29 986 2533.393 0 0
2020-06-30 989 2552.419 19.026 0.745
2020-07-01 987 2556.188 3.769 0.147
2020-07-07 1012 2556.188 0 0
2020-07-08 1009 2570.669 14.481 0.563
2020-07-09 1012 2572.998 2.329 0.091
2020-07-10 1007 2576.025 3.027 0.118
2020-07-11 1006 2583.699 7.674 0.297
2020-07-12 1006 2583.699 0 0
2020-07-13 1008 2583.699 0 0
2020-07-14 1013 2572.553 -11.146 -0.433
2020-07-15 1005 2592.23 19.677 0.759
2020-07-16 1000 2592.23 0 0
2020-07-17 995 2605 12.77 0.49
2020-07-18 995 2605 0 0
2020-07-20 993 2604.323 -0.677 -0.026
2020-07-21 997 2604.323 0 0
2020-07-22 1003 2613.655 9.332 0.357
2020-07-23 1000 2613.655 0 0
2020-07-24 937 2768.168 154.513 5.582
2020-07-25 936 2768.168 0 0
2020-07-26 933 2768.168 0 0
2020-07-27 937 2768.168 0 0
2020-07-28 940 2768.168 0 0
2020-07-29 945 2768.168 0 0
2020-07-30 949 2768.168 0 0
2020-07-31 949 2768.168 0 0
2020-08-04 958 2768.168 0 0
2020-08-05 964 2768.168 0 0
2020-08-06 962 2768.168 0 0
2020-08-07 958 2768.168 0 0
2020-08-08 959 2768.168 0 0
2020-08-09 959 2768.168 0 0
2020-08-10 954 2768.168 0 0
2020-08-12 951 2768.168 0 0
2020-08-13 950 2768.168 0 0
2020-08-14 954 2768.168 0 0
2020-08-15 952 2768.168 0 0
2020-08-16 952 2768.168 0 0
2020-08-17 954 2768.168 0 0
2020-08-18 961 2768.168 0 0
2020-08-19 956 2768.168 0 0
2020-08-20 954 2768.168 0 0
2020-08-21 959 2768.168 0 0
2020-08-22 958 2768.168 0 0
2020-08-23 958 2768.168 0 0
2020-08-24 963 2768.168 0 0
2020-08-25 968 2768.168 0 0
2020-08-26 966 2768.168 0 0
2020-08-27 972 2768.168 0 0
2020-08-28 974 2768.168 0 0
2020-08-29 977 2768.168 0 0
2020-08-30 977 2768.168 0 0
2020-08-31 976 2768.168 0 0
2020-09-01 982 2768.168 0 0
2020-09-02 987 2768.168 0 0
2020-09-03 983 2768.168 0 0
2020-09-04 979 2768.168 0 0
2020-09-05 979 2768.168 0 0
2020-09-06 979 2768.168 0 0
2020-09-07 975 2768.168 0 0
2020-09-08 971 2768.168 0 0
2020-09-09 967 2768.168 0 0
2020-09-10 965 2768.168 0 0
2020-09-11 971 2768.168 0 0
2020-09-12 970 2768.168 0 0
2020-09-13 970 2768.168 0 0
2020-09-14 974 2768.168 0 0
2020-09-15 983 2768.168 0 0
2020-09-16 983 2768.168 0 0
2020-09-17 981 2768.168 0 0
2020-09-18 983 2768.168 0 0
2020-09-19 983 2768.168 0 0
2020-09-21 979 2768.168 0 0
2020-09-22 979 2768.168 0 0
2020-09-23 970 2768.168 0 0
2020-09-24 963 2768.168 0 0
2020-09-25 961 2768.168 0 0
2020-09-26 961 2768.168 0 0
2020-09-27 961 2768.168 0 0
2020-09-28 967 2768.168 0 0
2020-09-29 968 2768.168 0 0
2020-09-30 972 2768.168 0 0
2020-10-01 974 2768.168 0 0
2020-10-03 975 2768.168 0 0
2020-10-04 975 2768.168 0 0
2020-10-05 977 2768.168 0 0
2020-10-06 979 2768.168 0 0
2020-10-07 979 2768.168 0 0
2020-10-08 984 2768.168 0 0
2020-10-09 989 2768.168 0 0
2020-10-10 992 2768.168 0 0
2020-10-11 993 2768.168 0 0
2020-10-12 993 2768.168 0 0
2020-10-13 992 2768.168 0 0
2020-10-14 992 2768.168 0 0
2020-10-16 985 2768.168 0 0
2020-10-17 985 2768.168 0 0
2020-10-18 985 2768.168 0 0
2020-10-19 982 2768.168 0 0
2020-10-20 987 2768.168 0 0
2020-10-21 985 2768.168 0 0
2020-10-22 990 2768.168 0 0
2020-10-23 985 2768.168 0 0
2020-10-24 987 2768.168 0 0
2020-10-25 986 2768.168 0 0
2020-10-26 980 2768.168 0 0
2020-10-27 982 2768.168 0 0
2020-10-28 972 2768.168 0 0
2020-10-29 967 2768.168 0 0
2020-10-30 967 2768.168 0 0
2020-10-31 967 2768.168 0 0
2020-11-01 967 2768.168 0 0
2020-11-02 971 2768.168 0 0
2020-11-03 976 2768.168 0 0
2020-11-04 988 2768.168 0 0
2020-11-05 996 2768.168 0 0
2020-11-06 1000 2768.168 0 0
2020-11-07 1005 2768.168 0 0
2020-11-08 1005 2768.168 0 0
2020-11-09 1015 2768.168 0 0
2020-11-10 1018 2768.168 0 0
2020-11-11 1015 2768.168 0 0
2020-11-12 1014 2768.168 0 0
2020-11-13 1016 2768.168 0 0
2020-11-14 1012 2768.168 0 0
2020-11-15 1012 2768.168 0 0
2020-11-17 1021 2768.168 0 0
2020-11-18 1020 2768.168 0 0
2020-11-19 1021 2768.168 0 0
2020-11-20 1019 2768.168 0 0
2020-11-21 1021 2768.168 0 0
2020-11-22 1018 2768.168 0 0
2020-11-23 1028 2768.168 0 0
2020-11-24 1019 2768.168 0 0
2020-11-25 1021 2768.168 0 0
2020-11-26 1023 2768.168 0 0
2020-11-27 1025 2768.168 0 0
2020-11-28 1026 2768.168 0 0
2020-11-29 1026 2768.168 0 0
2020-11-30 1023 2768.168 0 0
2020-12-01 1030 2768.168 0 0
2020-12-02 1030 2768.168 0 0
2020-12-03 1042 2768.168 0 0
2020-12-04 1044 2768.168 0 0
2020-12-05 1046 2768.168 0 0
2020-12-06 1046 2768.168 0 0
2020-12-07 1047 2768.168 0 0
2020-12-08 1059 2768.168 0 0
2020-12-09 1061 2768.168 0 0
2020-12-10 1062 2768.168 0 0
2020-12-11 1062 2768.168 0 0
2020-12-12 1063 2768.168 0 0
2020-12-13 1063 2768.168 0 0
2020-12-14 1060 2768.168 0 0
2020-12-15 1063 2768.168 0 0
2020-12-16 1064 2768.168 0 0
2020-12-17 1077 2768.168 0 0
2020-12-18 1081 2768.168 0 0
2020-12-19 1080 2768.168 0 0
2020-12-20 1081 2768.168 0 0
2020-12-21 1078 2768.168 0 0
2020-12-22 1073 2768.168 0 0
2020-12-23 1082 2768.168 0 0
2020-12-24 1081 2768.168 0 0
2020-12-25 1082 2768.168 0 0
2020-12-26 1082 2768.168 0 0
2020-12-27 1082 2768.168 0 0
2020-12-28 1076 2768.168 0 0
2020-12-29 1070 2768.168 0 0
2020-12-31 1083 2768.168 0 0
2021-01-01 1078 2768.168 0 0
2021-01-02 1078 2768.168 0 0
2021-01-03 1078 2768.168 0 0
2021-01-04 1083 2768.168 0 0
2021-01-05 1092 2768.168 0 0
2021-01-06 1088 2768.168 0 0
2021-01-07 1089 2768.168 0 0
2021-01-08 1095 2768.168 0 0
2021-01-09 1092 2768.168 0 0
2021-01-10 1092 2768.168 0 0
2021-01-11 1089 2768.168 0 0
2021-01-12 1091 2768.168 0 0
2021-01-13 1089 2768.168 0 0
2021-01-14 1096 2768.168 0 0
2021-01-15 1095 2768.168 0 0
2021-01-16 1090 2768.168 0 0
2021-01-17 1090 2768.168 0 0
2021-01-18 1100 2768.168 0 0
2021-01-19 1103 2768.168 0 0
2021-01-20 1105 2768.168 0 0
2021-01-21 1109 2768.168 0 0
2021-01-22 1104 2768.168 0 0
2021-01-23 1103 2768.168 0 0
2021-01-24 1103 2768.168 0 0
2021-01-25 1100 2768.168 0 0
2021-01-26 1099 2768.168 0 0
2021-01-27 1090 2768.168 0 0
2021-01-28 1084 2768.168 0 0
2021-01-29 1077 2768.168 0 0
2021-01-30 1078 2768.168 0 0
2021-01-31 1077 2768.168 0 0
2021-02-01 1088 2768.168 0 0
