2020-01-19 1014 2572.942
2020-02-07 1008 2561.974
2020-02-15 1011 2573.528
2020-02-16 1011 2573.528
2020-02-17 1011 2569.812
2020-02-18 1012 2569.812
2020-02-19 1005 2581.892
2020-02-20 1004 2584.635
2020-02-21 1002 2592.537
2020-02-22 1004 2584.012
2020-02-23 1005 2584.012
2020-02-24 997 2584.012
2020-02-25 1000 2558.747
2020-02-26 995 2533.54
2020-02-27 983 2525.531
2020-02-28 980 2493.031
2020-02-29 985 2473.835
2020-03-01 988 2473.835
2020-03-02 996 2473.835
2020-03-03 983 2519.782
2020-03-04 989 2498.982
2020-03-05 973 2536.498
2020-03-06 971 2512.297
2020-03-07 971 2507.743
2020-03-08 972 2507.743
2020-03-09 953 2507.743
2020-03-10 951 2478.762
2020-03-11 926 2506.118
2020-03-12 911 2454.247
2020-03-13 937 2374.674
2020-03-14 919 2426.797
2020-03-15 919 2426.797
2020-03-16 896 2426.797
2020-03-17 917 2337.171
2020-03-18 889 2387.654
2020-03-19 895 2355.682
2020-03-20 898 2363.613
2020-03-21 915 2321.554
2020-03-22 915 2321.554
2020-03-23 905 2321.554
2020-03-24 902 2310.736
2020-03-25 912 2348.291
2020-03-26 930 2349.052
2020-03-27 935 2380.046
2020-03-28 931 2356.373
2020-03-29 931 2356.373
2020-03-30 931 2356.373
2020-03-31 928 2368.623
2020-04-01 934 2350.348
2020-04-02 932 2336.909
2020-04-03 928 2342.132
2020-04-04 933 2328.263
2020-04-05 933 2328.263
2020-04-06 933 2328.263
2020-04-07 926 2387.687
2020-04-08 944 2394.992
2020-04-09 949 2418.891
2020-04-10 956 2421.502
2020-04-11 956 2421.502
2020-04-12 956 2421.502
2020-04-13 948 2421.502
2020-04-14 956 2421.36
2020-04-15 942 2453.607
2020-04-16 945 2432.584
2020-04-17 942 2454.363
2020-04-18 949 2469.229
2020-04-19 949 2469.229
2020-04-20 947 2469.229
2020-04-21 943 2453.089
2020-04-23 947 2447.661
2020-04-24 946 2444.464
2020-04-25 936 2468.736
2020-04-26 936 2468.736
2020-04-27 941 2468.736
2020-04-28 949 2479.324
2020-04-29 957 2478.8
2020-04-30 955 2491.724
2020-05-01 959 2471.765
2020-05-02 961 2457.903
2020-05-03 961 2457.903
2020-05-04 952 2457.903
2020-05-05 947 2472.307
2020-05-06 946 2480.6
2020-05-07 942 2488.414
2020-05-08 952 2480.945
2020-05-09 948 2501.461
2020-05-10 948 2501.461
2020-05-11 946 2501.461
2020-05-12 944 2509.767
2020-05-13 953 2494.686
2020-05-14 947 2480.947
2020-05-15 945 2484.307
2020-05-16 938 2492.652
2020-05-17 938 2492.652
2020-05-18 947 2492.652
2020-05-19 937 2516.696
2020-05-20 949 2512.97
2020-05-21 952 2510.328
2020-05-22 942 2513.139
2020-05-23 939 2515.465
2020-05-24 939 2515.465
2020-05-25 943 2515.465
2020-05-26 952 2515.465
2020-05-27 953 2523.867
2020-05-28 946 2545.438
2020-05-29 951 2542.51
2020-05-30 950 2550.679
2020-05-31 950 2550.679
2020-06-01 959 2550.679
2020-06-02 967 2548.191
2020-06-03 980 2551.536
2020-06-04 984 2563.277
2020-06-05 989 2560.321
2020-06-06 987 2578.598
2020-06-07 987 2578.598
2020-06-08 988 2578.598
2020-06-09 991 2576.963
2020-06-10 998 2567.54
2020-06-11 988 2559.048
2020-06-12 992 2528.843
2020-06-13 988 2530.345
2020-06-14 988 2530.345
2020-06-15 982 2530.345
2020-06-16 981 2538.657
2020-06-17 983 2555.955
2020-06-18 987 2555.955
2020-06-19 992 2553.945
2020-06-20 990 2552.589
2020-06-21 990 2552.589
2020-06-22 992 2552.589
2020-06-23 995 2563.267
2020-06-24 995 2563.267
2020-06-25 996 2541.064
2020-06-26 980 2547.603
2020-06-27 982 2533.393
2020-06-28 982 2533.393
2020-06-29 986 2533.393
2020-06-30 989 2552.419
2020-07-01 987 2556.188
2020-07-07 1012 2556.188
2020-07-08 1009 2570.669
2020-07-09 1012 2572.998
2020-07-10 1007 2576.025
2020-07-11 1006 2583.699
2020-07-12 1006 2583.699
2020-07-13 1008 2583.699
2020-07-14 1013 2572.553
2020-07-15 1005 2592.23
2020-07-16 1000 2592.23
2020-07-17 995 2605
2020-07-18 995 2605
2020-07-20 993 2604.323
2020-07-21 997 2604.323
2020-07-22 1003 2613.655
2020-07-23 1000 2613.655
2020-07-24 937 2768.168
2020-07-25 936 2768.168
2020-07-26 933 2768.168
2020-07-27 937 2768.168
2020-07-28 940 2768.168
2020-07-29 945 2768.168
2020-07-30 949 2768.168
2020-07-31 949 2768.168
2020-08-04 958 2768.168
2020-08-05 964 2768.168
2020-08-06 962 2768.168
2020-08-07 958 2768.168
2020-08-08 959 2768.168
2020-08-09 959 2768.168
2020-08-10 954 2768.168
2020-08-12 951 2768.168
2020-08-13 950 2768.168
2020-08-14 954 2768.168
2020-08-15 952 2768.168
2020-08-16 952 2768.168
2020-08-17 954 2768.168
2020-08-18 961 2768.168
2020-08-19 956 2768.168
2020-08-20 954 2768.168
2020-08-21 959 2768.168
2020-08-22 958 2768.168
2020-08-23 958 2768.168
2020-08-24 963 2768.168
2020-08-25 968 2768.168
2020-08-26 966 2768.168
2020-08-27 972 2768.168
2020-08-28 974 2768.168
2020-08-29 977 2768.168
2020-08-30 977 2768.168
2020-08-31 976 2768.168
2020-09-01 982 2768.168
2020-09-02 987 2768.168
2020-09-03 983 2768.168
2020-09-04 979 2768.168
2020-09-05 979 2768.168
2020-09-06 979 2768.168
2020-09-07 975 2768.168
2020-09-08 971 2768.168
2020-09-09 967 2768.168
2020-09-10 965 2768.168
2020-09-11 971 2768.168
2020-09-12 970 2768.168
2020-09-13 970 2768.168
2020-09-14 974 2768.168
2020-09-15 983 2768.168
2020-09-16 983 2768.168
2020-09-17 981 2768.168
2020-09-18 983 2768.168
2020-09-19 983 2768.168
2020-09-21 979 2768.168
2020-09-22 979 2768.168
2020-09-23 970 2768.168
2020-09-24 963 2768.168
2020-09-25 961 2768.168
2020-09-26 961 2768.168
2020-09-27 961 2768.168
2020-09-28 967 2768.168
2020-09-29 968 2768.168
2020-09-30 972 2768.168
2020-10-01 974 2768.168
2020-10-03 975 2768.168
2020-10-04 975 2768.168
2020-10-05 977 2768.168
2020-10-06 979 2768.168
2020-10-07 979 2768.168
2020-10-08 984 2768.168
2020-10-09 989 2768.168
2020-10-10 992 2768.168
2020-10-11 993 2768.168
2020-10-12 993 2768.168
2020-10-13 992 2768.168
2020-10-14 992 2768.168
2020-10-16 985 2768.168
2020-10-17 985 2768.168
2020-10-18 985 2768.168
2020-10-19 982 2768.168
2020-10-20 987 2768.168
2020-10-21 985 2768.168
2020-10-22 990 2768.168
2020-10-23 985 2768.168
2020-10-24 987 2768.168
2020-10-25 986 2768.168
2020-10-26 980 2768.168
2020-10-27 982 2768.168
2020-10-28 972 2768.168
2020-10-29 967 2768.168
2020-10-30 967 2768.168
2020-10-31 967 2768.168
2020-11-01 967 2768.168
2020-11-02 971 2768.168
2020-11-03 976 2768.168
2020-11-04 988 2768.168
2020-11-05 996 2768.168
2020-11-06 1000 2768.168
2020-11-07 1005 2768.168
2020-11-08 1005 2768.168
2020-11-09 1015 2768.168
2020-11-10 1018 2768.168
2020-11-11 1015 2768.168
2020-11-12 1014 2768.168
2020-11-13 1016 2768.168
2020-11-14 1012 2768.168
2020-11-15 1012 2768.168
2020-11-17 1021 2768.168
2020-11-18 1020 2768.168
2020-11-19 1021 2768.168
2020-11-20 1019 2768.168
2020-11-21 1021 2768.168
2020-11-22 1018 2768.168
2020-11-23 1028 2768.168
2020-11-24 1019 2768.168
2020-11-25 1021 2768.168
2020-11-26 1023 2768.168
2020-11-27 1025 2768.168
2020-11-28 1026 2768.168
2020-11-29 1026 2768.168
2020-11-30 1023 2768.168
2020-12-01 1030 2768.168
2020-12-02 1030 2768.168
2020-12-03 1042 2768.168
2020-12-04 1044 2768.168
2020-12-05 1046 2768.168
2020-12-06 1046 2768.168
2020-12-07 1047 2768.168
2020-12-08 1059 2768.168
2020-12-09 1061 2768.168
2020-12-10 1062 2768.168
2020-12-11 1062 2768.168
2020-12-12 1063 2768.168
2020-12-13 1063 2768.168
2020-12-14 1060 2768.168
2020-12-15 1063 2768.168
2020-12-16 1064 2768.168
2020-12-17 1077 2768.168
2020-12-18 1081 2768.168
2020-12-19 1080 2768.168
2020-12-20 1081 2768.168
2020-12-21 1078 2768.168
2020-12-22 1073 2768.168
2020-12-23 1082 2768.168
2020-12-24 1081 2768.168
2020-12-25 1082 2768.168
2020-12-26 1082 2768.168
2020-12-27 1082 2768.168
2020-12-28 1076 2768.168
2020-12-29 1070 2768.168
2020-12-31 1083 2768.168
2021-01-01 1078 2768.168
2021-01-02 1078 2768.168
2021-01-03 1078 2768.168
2021-01-04 1083 2768.168
2021-01-05 1092 2768.168
2021-01-06 1088 2768.168
2021-01-07 1089 2768.168
2021-01-08 1095 2768.168
2021-01-09 1092 2768.168
2021-01-10 1092 2768.168
2021-01-11 1089 2768.168
2021-01-12 1091 2768.168
2021-01-13 1089 2768.168
2021-01-14 1096 2768.168
2021-01-15 1095 2768.168
2021-01-16 1090 2768.168
2021-01-17 1090 2768.168
2021-01-18 1100 2768.168
2021-01-19 1103 2768.168
2021-01-20 1105 2768.168
2021-01-21 1109 2768.168
2021-01-22 1104 2768.168
2021-01-23 1103 2768.168
2021-01-24 1103 2768.168
2021-01-25 1100 2768.168
2021-01-26 1099 2768.168
2021-01-27 1090 2768.168
2021-01-28 1084 2768.168
2021-01-29 1077 2768.168
2021-01-30 1078 2768.168
2021-01-31 1077 2768.168
2021-02-01 1088 2768.168
2021-02-02 1092 2768.168
2021-02-03 1096 2768.168
2021-02-04 1099 2768.168
2021-02-05 1098 2768.168
2021-02-06 1098 2768.168
2021-02-07 1098 2768.168
2021-02-08 1099 2768.168
2021-02-09 1109 2768.168
2021-02-10 1120 2768.168
2021-02-11 1123 2768.168
2021-02-12 1121 2768.168
2021-02-13 1121 2768.168
2021-02-14 1121 2768.168
2021-02-15 1124 2768.168
2021-02-16 1131 2768.168
2021-02-17 1123 2768.168
2021-02-18 1117 2768.168
2021-02-19 1116 2768.168
2021-02-20 1120 2768.168
2021-02-21 1121 2768.168
2021-02-22 1110 2768.168
2021-02-23 1109 2768.168
2021-02-24 1107 2768.168
2021-02-25 1101 2768.168
2021-02-26 1098 2768.168
2021-02-27 1095 2768.168
2021-02-28 1097 2768.168
2021-03-01 1106 2768.168
2021-03-02 1107 2768.168
2021-03-03 1105 2768.168
2021-03-04 1100 2782.378
2021-03-05 1096 2782.378
2021-03-06 1096 2782.378
2021-03-07 1101 2782.378
2021-03-08 1089 2782.378
2021-03-09 1085 2782.378
2021-03-11 1109 2782.378
2021-03-12 1119 2782.378
2021-03-13 1118 2782.378
2021-03-14 1119 2782.378
2021-03-15 1113 2782.378
2021-03-16 1110 2782.378
2021-03-18 1113 2782.378
2021-03-19 1104 2782.378
2021-03-20 1100 2782.378
2021-03-21 1100 2782.378
2021-03-22 1102 2782.378
2021-03-23 1109 2782.378
2021-03-24 1096 2782.378
2021-03-25 1095 2782.378
2021-03-26 1102 2782.378
2021-03-27 1100 2782.378
2021-03-29 1097 2782.378
2021-03-30 1096 2782.378
2021-03-31 1093 2782.378
2021-04-01 1101 2782.378
2021-04-02 1100 2782.378
2021-04-03 1100 2782.378
2021-04-04 1100 2782.378
2021-04-05 1104 2782.378
2021-04-06 1108 2782.378
2021-04-07 1109 2782.378
2021-04-08 1111 2782.378
2021-04-09 1155 2782.378
2021-04-10 1153 2782.378
2021-04-11 1153 2782.378
2021-04-12 1147 2782.378
2021-04-13 1146 2782.378
2021-04-14 1154 2782.378
2021-04-15 1166 2782.378
2021-04-16 1170 2782.378
2021-04-17 1171 2782.378
2021-04-18 1171 2782.378
2021-04-19 1172 2782.378
2021-04-20 1169 2782.378
2021-04-21 1174 2782.378
2021-04-22 1170 2782.378
2021-04-23 1179 2782.378
2021-04-24 1179 2782.378
2021-04-25 1179 2782.378
2021-04-26 1177 2782.378
2021-04-27 1181 2782.378
2021-04-28 1182 2782.378
2021-04-29 1181 2782.378
2021-04-30 1181 2782.378
2021-05-01 1179 2776.818
2021-05-02 1178 2776.818
2021-05-03 1179 2776.818
2021-05-04 1171 2792.506
2021-05-05 1172 2787.981
2021-05-06 1170 2785.517
2021-05-07 1166 2792.575
2021-05-08 1169 2795.819
2021-05-09 1170 2795.819
2021-05-10 1164 2795.819
2021-05-11 1169 2788.799
2021-05-12 1169 2772.54
2021-05-13 1174 2742.387
2021-05-14 1177 2761.93
2021-05-15 1168 2780.41
2021-05-16 1168 2780.41
2021-05-17 1176 2780.41
2021-05-18 1174 2780.41
2021-05-19 1176 2770.802
2021-05-20 1184 2766.413
2021-05-21 1177 2774.798
2021-05-22 1175 2775.89
2021-05-23 1175 2775.89
2021-05-24 1183 2775.89
2021-05-25 1184 2775.89
2021-05-26 1189 2777.51
2021-05-27 1193 2787.142
2021-05-28 1187 2791.393
2021-05-29 1189 2783.897
2021-05-30 1189 2783.897
2021-05-31 1192 2783.897
2021-06-01 1193 2783.897
2021-06-02 1191 2790.384
2021-06-03 1187 2792.226
2021-06-04 1194 2785.813
2021-06-05 1194 2792.071
2021-06-06 1194 2792.071
2021-06-07 1196 2792.071
2021-06-08 1195 2788.524
2021-06-09 1192 2796.399
2021-06-10 1206 2785.681
2021-06-11 1205 2788.343
2021-06-12 1200 2796.988
2021-06-13 1200 2796.988
2021-06-14 1200 2796.988
2021-06-16 1191 2790.633
2021-06-17 1195 2785.011
2021-06-18 1191 2784.689
2021-06-19 1191 2784.689
2021-06-20 1190 2775.962
2021-06-21 1195 2775.962
2021-06-22 1196 2794.733
2021-06-23 1177 2809.059
2021-06-24 1188 2811.933
2021-06-25 1183 2815.415
2021-06-26 1184 2824.022
2021-06-27 1184 2824.022
2021-06-28 1190 2824.022
2021-06-29 1189 2828.193
2021-06-30 1182 2831.847
2021-07-01 1176 2831.093
2021-07-02 1174 2838.66
2021-07-03 1168 2846.983
2021-07-04 1168 2846.983
2021-07-05 1167 2846.983
2021-07-06 1164 2846.983
2021-07-07 1173 2840.166
2021-07-08 1167 2846.608
2021-07-09 1165 2845.146
2021-07-10 1161 2860.986
2021-07-11 1162 2860.986
2021-07-12 1172 2860.986
2021-07-13 1162 2863.141
2021-07-14 1161 2854.599
2021-07-15 1161 2856.554
2021-07-16 1156 2853.375
2021-07-17 1159 2846.683
2021-07-18 1159 2846.683
2021-07-19 1155 2846.683
2021-07-20 1159 2842.916
2021-07-21 1157 2865.301
2021-07-22 1151 2871.867
2021-07-23 1149 2871.628
2021-07-24 1142 2886.459
2021-07-25 1142 2886.459
2021-07-26 1135 2886.459
2021-07-27 1126 2885.149
2021-07-28 1122 2880.617
2021-07-29 1139 2876.646
2021-07-30 1133 2884.812
2021-07-31 1134 2885.877
2021-08-01 1134 2885.877
2021-08-02 1138 2885.877
2021-08-03 1148 2881.923
2021-08-04 1136 2896.89
2021-08-05 1144 2882.364
2021-08-06 1142 2888.797
2021-08-07 1136 2885.897
2021-08-08 1136 2885.897
2021-08-09 1135 2885.897
2021-08-10 1138 2889.84
2021-08-11 1132 2906.935
2021-08-13 1137 2900.552
2021-08-14 1143 2893.11
2021-08-15 1142 2893.11
2021-08-16 1140 2893.11
2021-08-17 1135 2893.11
2021-08-18 1141 2869.623
2021-08-19 1149 2857.332
2021-08-20 1142 2852.644
2021-08-21 1136 2872.025
2021-08-22 1136 2872.025
2021-08-23 1139 2872.025
2021-08-24 1155 2872.857
2021-08-25 1155 2875.726
2021-08-26 1144 2886.975
2021-08-27 1168 2853.475
2021-08-28 1210 2785.916
2021-08-29 1211 2785.916
2021-08-30 1215 2785.916
2021-08-31 1228 2776.733
