2020-01-19 1014 2572.942 0 0
2020-02-07 1008 2561.974 -10.968 -0.428
2020-02-15 1011 2573.528 11.554 0.449
2020-02-16 1011 2573.528 0 0
2020-02-17 1011 2569.812 -3.716 -0.145
2020-02-18 1012 2569.812 0 0
2020-02-19 1005 2581.892 12.08 0.468
2020-02-20 1004 2584.635 2.743 0.106
2020-02-21 1002 2592.537 7.902 0.305
2020-02-22 1004 2584.012 -8.525 -0.33
2020-02-23 1005 2584.012 0 0
2020-02-24 997 2584.012 0 0
2020-02-25 1000 2558.747 -25.265 -0.987
2020-02-26 995 2533.54 -25.207 -0.995
2020-02-27 983 2525.531 -8.009 -0.317
2020-02-28 980 2493.031 -32.5 -1.304
2020-02-29 985 2473.835 -19.196 -0.776
2020-03-01 988 2473.835 0 0
2020-03-02 996 2473.835 0 0
2020-03-03 983 2519.782 45.947 1.823
2020-03-04 989 2498.982 -20.8 -0.832
2020-03-05 973 2536.498 37.516 1.479
2020-03-06 971 2512.297 -24.201 -0.963
2020-03-07 971 2507.743 -4.554 -0.182
2020-03-08 972 2507.743 0 0
2020-03-09 953 2507.743 0 0
2020-03-10 951 2478.762 -28.981 -1.169
2020-03-11 926 2506.118 27.356 1.092
2020-03-12 911 2454.247 -51.871 -2.114
2020-03-13 937 2374.674 -79.573 -3.351
2020-03-14 919 2426.797 52.123 2.148
2020-03-15 919 2426.797 0 0
2020-03-16 896 2426.797 0 0
2020-03-17 917 2337.171 -89.626 -3.835
2020-03-18 889 2387.654 50.483 2.114
2020-03-19 895 2355.682 -31.972 -1.357
2020-03-20 898 2363.613 7.931 0.336
2020-03-21 915 2321.554 -42.059 -1.812
2020-03-22 915 2321.554 0 0
2020-03-23 905 2321.554 0 0
2020-03-24 902 2310.736 -10.818 -0.468
2020-03-25 912 2348.291 37.555 1.599
2020-03-26 930 2349.052 0.761 0.032
2020-03-27 935 2380.046 30.994 1.302
2020-03-28 931 2356.373 -23.673 -1.005
2020-03-29 931 2356.373 0 0
2020-03-30 931 2356.373 0 0
2020-03-31 928 2368.623 12.25 0.517
2020-04-01 934 2350.348 -18.275 -0.778
2020-04-02 932 2336.909 -13.439 -0.575
2020-04-03 928 2342.132 5.223 0.223
2020-04-04 933 2328.263 -13.869 -0.596
2020-04-05 933 2328.263 0 0
2020-04-06 933 2328.263 0 0
2020-04-07 926 2387.687 59.424 2.489
2020-04-08 944 2394.992 7.305 0.305
2020-04-10 956 2421.502 26.51 1.095
2020-04-11 956 2421.502 0 0
2020-04-12 956 2421.502 0 0
2020-04-13 948 2421.502 0 0
2020-04-14 956 2421.36 -0.142 -0.006
2020-04-15 942 2453.607 32.247 1.314
2020-04-17 942 2454.363 0.756 0.031
2020-04-18 949 2469.229 14.866 0.602
2020-04-19 949 2469.229 0 0
2020-04-20 947 2469.229 0 0
2020-04-21 943 2453.089 -16.14 -0.658
2020-04-23 947 2447.661 -5.428 -0.222
2020-04-24 946 2444.464 -3.197 -0.131
2020-04-25 936 2468.736 24.272 0.983
2020-04-26 936 2468.736 0 0
2020-04-27 941 2468.736 0 0
2020-04-28 949 2479.324 10.588 0.427
2020-04-29 957 2478.8 -0.524 -0.021
2020-04-30 955 2491.724 12.924 0.519
2020-05-01 959 2471.765 -19.959 -0.807
2020-05-02 961 2457.903 -13.862 -0.564
2020-05-03 961 2457.903 0 0
2020-05-04 952 2457.903 0 0
2020-05-05 947 2472.307 14.404 0.583
2020-05-06 946 2480.6 8.293 0.334
2020-05-07 942 2488.414 7.814 0.314
2020-05-08 952 2480.945 -7.469 -0.301
2020-05-09 948 2501.461 20.516 0.82
2020-05-10 948 2501.461 0 0
2020-05-11 946 2501.461 0 0
2020-05-12 944 2509.767 8.306 0.331
2020-05-13 953 2494.686 -15.081 -0.605
2020-05-14 947 2480.947 -13.739 -0.554
2020-05-15 945 2484.307 3.36 0.135
2020-05-16 938 2492.652 8.345 0.335
2020-05-17 938 2492.652 0 0
2020-05-18 947 2492.652 0 0
2020-05-19 937 2516.696 24.044 0.955
2020-05-20 949 2512.97 -3.726 -0.148
2020-05-21 952 2510.328 -2.642 -0.105
2020-05-22 942 2513.139 2.811 0.112
2020-05-23 939 2515.465 2.326 0.092
2020-05-24 939 2515.465 0 0
2020-05-25 943 2515.465 0 0
2020-05-26 952 2515.465 0 0
2020-05-27 953 2523.867 8.402 0.333
2020-05-28 946 2545.438 21.571 0.847
2020-05-29 951 2542.51 -2.928 -0.115
2020-05-30 950 2550.679 8.169 0.32
2020-05-31 950 2550.679 0 0
2020-06-01 959 2550.679 0 0
2020-06-02 967 2548.191 -2.488 -0.098
2020-06-03 980 2551.536 3.345 0.131
2020-06-04 984 2563.277 11.741 0.458
2020-06-05 989 2560.321 -2.956 -0.115
2020-06-06 987 2578.598 18.277 0.709
2020-06-07 987 2578.598 0 0
2020-06-08 988 2578.598 0 0
2020-06-09 991 2576.963 -1.635 -0.063
2020-06-10 998 2567.54 -9.423 -0.367
2020-06-11 988 2559.048 -8.492 -0.332
2020-06-12 992 2528.843 -30.205 -1.194
2020-06-13 988 2530.345 1.502 0.059
2020-06-14 988 2530.345 0 0
2020-06-15 982 2530.345 0 0
2020-06-16 981 2538.657 8.312 0.327
2020-06-17 983 2555.955 17.298 0.677
2020-06-18 987 2555.955 0 0
2020-06-19 992 2553.945 -2.01 -0.079
2020-06-20 990 2552.589 -1.356 -0.053
2020-06-21 990 2552.589 0 0
2020-06-22 992 2552.589 0 0
2020-06-23 995 2563.267 10.678 0.417
2020-06-24 995 2563.267 0 0
2020-06-25 996 2541.064 -22.203 -0.874
2020-06-26 980 2547.603 6.539 0.257
2020-06-27 982 2533.393 -14.21 -0.561
2020-06-28 982 2533.393 0 0
2020-06-29 986 2533.393 0 0
2020-06-30 989 2552.419 19.026 0.745
2020-07-01 987 2556.188 3.769 0.147
2020-07-07 1012 2556.188 0 0
2020-07-08 1009 2570.669 14.481 0.563
2020-07-09 1012 2572.998 2.329 0.091
2020-07-10 1007 2576.025 3.027 0.118
2020-07-11 1006 2583.699 7.674 0.297
2020-07-12 1006 2583.699 0 0
2020-07-13 1008 2583.699 0 0
2020-07-14 1013 2572.553 -11.146 -0.433
2020-07-15 1005 2592.23 19.677 0.759
2020-07-16 1000 2592.23 0 0
2020-07-17 995 2605 12.77 0.49
2020-07-18 995 2605 0 0
2020-07-20 993 2604.323 -0.677 -0.026
2020-07-21 997 2604.323 0 0
2020-07-22 1003 2613.655 9.332 0.357
2020-07-23 1000 2613.655 0 0
2020-07-24 937 2768.168 154.513 5.582
2020-07-25 936 2768.168 0 0
2020-07-26 933 2768.168 0 0
2020-07-27 937 2768.168 0 0
2020-07-28 940 2768.168 0 0
2020-07-29 945 2768.168 0 0
2020-07-30 949 2768.168 0 0
2020-07-31 949 2768.168 0 0
2020-08-04 958 2768.168 0 0
2020-08-05 964 2768.168 0 0
2020-08-06 962 2768.168 0 0
2020-08-07 958 2768.168 0 0
2020-08-08 959 2768.168 0 0
2020-08-09 959 2768.168 0 0
2020-08-10 954 2768.168 0 0
2020-08-12 951 2768.168 0 0
2020-08-13 950 2768.168 0 0
2020-08-14 954 2768.168 0 0
2020-08-15 952 2768.168 0 0
2020-08-16 952 2768.168 0 0
2020-08-17 954 2768.168 0 0
2020-08-18 961 2768.168 0 0
2020-08-19 956 2768.168 0 0
2020-08-20 954 2768.168 0 0
2020-08-21 959 2768.168 0 0
2020-08-22 958 2768.168 0 0
2020-08-23 958 2768.168 0 0
2020-08-24 963 2768.168 0 0
2020-08-25 968 2768.168 0 0
2020-08-26 966 2768.168 0 0
2020-08-27 972 2768.168 0 0
2020-08-28 974 2768.168 0 0
2020-08-29 977 2768.168 0 0
2020-08-30 977 2768.168 0 0
2020-08-31 976 2768.168 0 0
2020-09-01 982 2768.168 0 0
2020-09-02 987 2768.168 0 0
2020-09-03 983 2768.168 0 0
2020-09-04 979 2768.168 0 0
2020-09-05 979 2768.168 0 0
2020-09-06 979 2768.168 0 0
2020-09-07 975 2768.168 0 0
2020-09-08 971 2768.168 0 0
2020-09-09 967 2768.168 0 0
2020-09-10 965 2768.168 0 0
2020-09-11 971 2768.168 0 0
2020-09-12 970 2768.168 0 0
2020-09-13 970 2768.168 0 0
2020-09-14 974 2768.168 0 0
2020-09-15 983 2768.168 0 0
2020-09-16 983 2768.168 0 0
2020-09-17 981 2768.168 0 0
2020-09-18 983 2768.168 0 0
2020-09-19 983 2768.168 0 0
2020-09-21 979 2768.168 0 0
2020-09-22 979 2768.168 0 0
2020-09-23 970 2768.168 0 0
2020-09-24 963 2768.168 0 0
2020-09-25 961 2768.168 0 0
2020-09-26 961 2768.168 0 0
2020-09-27 961 2768.168 0 0
2020-09-28 967 2768.168 0 0
2020-09-29 968 2768.168 0 0
2020-09-30 972 2768.168 0 0
2020-10-01 974 2768.168 0 0
2020-10-03 975 2768.168 0 0
2020-10-04 975 2768.168 0 0
2020-10-05 977 2768.168 0 0
2020-10-06 979 2768.168 0 0
2020-10-07 979 2768.168 0 0
2020-10-08 984 2768.168 0 0
2020-10-09 989 2768.168 0 0
2020-10-10 992 2768.168 0 0
2020-10-11 993 2768.168 0 0
2020-10-12 993 2768.168 0 0
2020-10-13 992 2768.168 0 0
2020-10-14 992 2768.168 0 0
2020-10-16 985 2768.168 0 0
2020-10-17 985 2768.168 0 0
2020-10-18 985 2768.168 0 0
2020-10-19 982 2768.168 0 0
2020-10-20 987 2768.168 0 0
2020-10-21 985 2768.168 0 0
2020-10-22 990 2768.168 0 0
2020-10-23 985 2768.168 0 0
2020-10-24 987 2768.168 0 0
2020-10-25 986 2768.168 0 0
2020-10-26 980 2768.168 0 0
2020-10-27 982 2768.168 0 0
2020-10-28 972 2768.168 0 0
2020-10-29 967 2768.168 0 0
2020-10-30 967 2768.168 0 0
2020-10-31 967 2768.168 0 0
2020-11-01 967 2768.168 0 0
2020-11-02 971 2768.168 0 0
2020-11-03 976 2768.168 0 0
2020-11-04 988 2768.168 0 0
2020-11-05 996 2768.168 0 0
2020-11-06 1000 2768.168 0 0
2020-11-07 1005 2768.168 0 0
2020-11-08 1005 2768.168 0 0
2020-11-09 1015 2768.168 0 0
2020-11-10 1018 2768.168 0 0
2020-11-11 1015 2768.168 0 0
2020-11-12 1014 2768.168 0 0
2020-11-13 1016 2768.168 0 0
2020-11-14 1012 2768.168 0 0
2020-11-15 1012 2768.168 0 0
2020-11-17 1021 2768.168 0 0
2020-11-18 1020 2768.168 0 0
2020-11-19 1021 2768.168 0 0
2020-11-20 1019 2768.168 0 0
2020-11-21 1021 2768.168 0 0
2020-11-22 1018 2768.168 0 0
2020-11-23 1028 2768.168 0 0
2020-11-24 1019 2768.168 0 0
2020-11-25 1021 2768.168 0 0
2020-11-26 1023 2768.168 0 0
2020-11-27 1025 2768.168 0 0
2020-11-28 1026 2768.168 0 0
2020-11-29 1026 2768.168 0 0
2020-11-30 1023 2768.168 0 0
2020-12-01 1030 2768.168 0 0
2020-12-02 1030 2768.168 0 0
2020-12-03 1042 2768.168 0 0
2020-12-04 1044 2768.168 0 0
2020-12-05 1046 2768.168 0 0
2020-12-06 1046 2768.168 0 0
2020-12-07 1047 2768.168 0 0
2020-12-08 1059 2768.168 0 0
2020-12-09 1061 2768.168 0 0
2020-12-10 1062 2768.168 0 0
2020-12-11 1062 2768.168 0 0
2020-12-12 1063 2768.168 0 0
2020-12-13 1063 2768.168 0 0
2020-12-14 1060 2768.168 0 0
2020-12-15 1063 2768.168 0 0
2020-12-16 1064 2768.168 0 0
2020-12-17 1077 2768.168 0 0
2020-12-18 1081 2768.168 0 0
2020-12-19 1080 2768.168 0 0
2020-12-20 1081 2768.168 0 0
2020-12-21 1078 2768.168 0 0
2020-12-22 1073 2768.168 0 0
2020-12-23 1082 2768.168 0 0
2020-12-24 1081 2768.168 0 0
2020-12-25 1082 2768.168 0 0
2020-12-26 1082 2768.168 0 0
2020-12-27 1082 2768.168 0 0
2020-12-28 1076 2768.168 0 0
2020-12-29 1070 2768.168 0 0
2020-12-31 1083 2768.168 0 0
2021-01-01 1078 2768.168 0 0
2021-01-02 1078 2768.168 0 0
2021-01-03 1078 2768.168 0 0
2021-01-04 1083 2768.168 0 0
2021-01-05 1092 2768.168 0 0
2021-01-06 1088 2768.168 0 0
2021-01-07 1089 2768.168 0 0
2021-01-08 1095 2768.168 0 0
2021-01-09 1092 2768.168 0 0
2021-01-10 1092 2768.168 0 0
2021-01-11 1089 2768.168 0 0
2021-01-12 1091 2768.168 0 0
2021-01-13 1089 2768.168 0 0
2021-01-14 1096 2768.168 0 0
2021-01-15 1095 2768.168 0 0
2021-01-16 1090 2768.168 0 0
2021-01-17 1090 2768.168 0 0
2021-01-18 1100 2768.168 0 0
2021-01-19 1103 2768.168 0 0
2021-01-20 1105 2768.168 0 0
2021-01-21 1109 2768.168 0 0
2021-01-22 1104 2768.168 0 0
2021-01-23 1103 2768.168 0 0
2021-01-24 1103 2768.168 0 0
2021-01-25 1100 2768.168 0 0
2021-01-26 1099 2768.168 0 0
2021-01-27 1090 2768.168 0 0
2021-01-28 1084 2768.168 0 0
2021-01-29 1077 2768.168 0 0
2021-01-30 1078 2768.168 0 0
2021-01-31 1077 2768.168 0 0
2021-02-01 1088 2768.168 0 0
2021-02-02 1092 2768.168 0 0
2021-02-03 1096 2768.168 0 0
2021-02-04 1099 2768.168 0 0
2021-02-05 1098 2768.168 0 0
2021-02-06 1098 2768.168 0 0
2021-02-07 1098 2768.168 0 0
2021-02-08 1099 2768.168 0 0
2021-02-09 1109 2768.168 0 0
2021-02-10 1120 2768.168 0 0
2021-02-11 1123 2768.168 0 0
2021-02-12 1121 2768.168 0 0
2021-02-13 1121 2768.168 0 0
2021-02-14 1121 2768.168 0 0
2021-02-15 1124 2768.168 0 0
2021-02-16 1131 2768.168 0 0
2021-02-17 1123 2768.168 0 0
2021-02-19 1116 2768.168 0 0
2021-02-20 1120 2768.168 0 0
2021-02-21 1121 2768.168 0 0
2021-02-22 1110 2768.168 0 0
2021-02-23 1109 2768.168 0 0
2021-02-24 1107 2768.168 0 0
2021-02-25 1101 2768.168 0 0
2021-02-26 1098 2768.168 0 0
2021-02-27 1095 2768.168 0 0
2021-02-28 1097 2768.168 0 0
2021-03-01 1106 2768.168 0 0
2021-03-02 1107 2768.168 0 0
2021-03-03 1105 2768.168 0 0
2021-03-04 1100 2782.378 14.21 0.511
2021-03-05 1096 2782.378 0 0
2021-03-06 1096 2782.378 0 0
2021-03-07 1101 2782.378 0 0
2021-03-08 1089 2782.378 0 0
2021-03-09 1085 2782.378 0 0
2021-03-11 1109 2782.378 0 0
2021-03-12 1119 2782.378 0 0
2021-03-13 1118 2782.378 0 0
2021-03-14 1119 2782.378 0 0
2021-03-15 1113 2782.378 0 0
2021-03-16 1110 2782.378 0 0
2021-03-18 1104 2782.378 0 0
2021-03-19 1104 2782.378 0 0
2021-03-20 1100 2782.378 0 0
2021-03-21 1100 2782.378 0 0
2021-03-22 1102 2782.378 0 0
2021-03-23 1109 2782.378 0 0
2021-03-24 1096 2782.378 0 0
2021-03-26 1102 2782.378 0 0
2021-03-27 1100 2782.378 0 0
2021-03-28 1100 2782.378 0 0
2021-03-29 1097 2782.378 0 0
2021-03-30 1096 2782.378 0 0
2021-03-31 1093 2782.378 0 0
2021-04-01 1101 2782.378 0 0
2021-04-02 1100 2782.378 0 0
2021-04-03 1100 2782.378 0 0
2021-04-04 1100 2782.378 0 0
2021-04-05 1104 2782.378 0 0
2021-04-06 1108 2782.378 0 0
2021-04-07 1109 2782.378 0 0
2021-04-08 1111 2782.378 0 0
2021-04-09 1155 2782.378 0 0
2021-04-10 1153 2782.378 0 0
2021-04-11 1153 2782.378 0 0
2021-04-12 1147 2782.378 0 0
2021-04-13 1146 2782.378 0 0
2021-04-14 1154 2782.378 0 0
2021-04-15 1166 2782.378 0 0
2021-04-16 1170 2782.378 0 0
2021-04-17 1171 2782.378 0 0
2021-04-18 1171 2782.378 0 0
2021-04-19 1172 2782.378 0 0
2021-04-20 1169 2782.378 0 0
2021-04-21 1174 2782.378 0 0
2021-04-22 1170 2782.378 0 0
2021-04-23 1179 2782.378 0 0
2021-04-24 1179 2782.378 0 0
2021-04-25 1179 2782.378 0 0
2021-04-26 1177 2782.378 0 0
2021-04-27 1181 2782.378 0 0
2021-04-28 1182 2782.378 0 0
2021-04-29 1181 2782.378 0 0
2021-04-30 1181 2782.378 0 0
2021-05-01 1179 2776.818 -5.56 -0.2
2021-05-02 1178 2776.818 0 0
2021-05-03 1179 2776.818 0 0
2021-05-04 1171 2792.506 15.688 0.562
2021-05-05 1172 2787.981 -4.525 -0.162
2021-05-06 1170 2785.517 -2.464 -0.088
2021-05-07 1166 2792.575 7.058 0.253
2021-05-08 1169 2795.819 3.244 0.116
2021-05-09 1170 2795.819 0 0
2021-05-10 1164 2795.819 0 0
2021-05-11 1169 2788.799 -7.02 -0.252
2021-05-12 1169 2772.54 -16.259 -0.586
2021-05-13 1174 2742.387 -30.153 -1.1
2021-05-14 1177 2761.93 19.543 0.708
2021-05-15 1168 2780.41 18.48 0.665
2021-05-16 1168 2780.41 0 0
2021-05-17 1176 2780.41 0 0
2021-05-18 1174 2780.41 0 0
2021-05-19 1176 2770.802 -9.608 -0.347
2021-05-20 1184 2766.413 -4.389 -0.159
2021-05-21 1177 2774.798 8.385 0.302
2021-05-22 1175 2775.89 1.092 0.039
2021-05-24 1183 2775.89 0 0
2021-05-25 1184 2775.89 0 0
2021-05-26 1189 2777.51 1.62 0.058
2021-05-27 1193 2787.142 9.632 0.346
2021-05-28 1187 2791.393 4.251 0.152
2021-05-29 1189 2783.897 -7.496 -0.269
2021-05-30 1189 2783.897 0 0
2021-05-31 1192 2783.897 0 0
2021-06-01 1193 2783.897 0 0
2021-06-02 1191 2790.384 6.487 0.232
2021-06-03 1187 2792.226 1.842 0.066
2021-06-04 1194 2785.813 -6.413 -0.23
2021-06-05 1194 2792.071 6.258 0.224
2021-06-06 1194 2792.071 0 0
2021-06-07 1196 2792.071 0 0
2021-06-08 1195 2788.524 -3.547 -0.127
2021-06-09 1192 2796.399 7.875 0.282
2021-06-10 1206 2785.681 -10.718 -0.385
2021-06-11 1205 2788.343 2.662 0.095
2021-06-12 1200 2796.988 8.645 0.309
2021-06-13 1200 2796.988 0 0
2021-06-14 1200 2796.988 0 0
2021-06-16 1191 2790.633 -6.355 -0.228
2021-06-17 1195 2785.011 -5.622 -0.202
2021-06-18 1191 2784.689 -0.322 -0.012
2021-06-19 1191 2784.689 0 0
2021-06-20 1190 2775.962 -8.727 -0.314
2021-06-21 1195 2775.962 0 0
2021-06-22 1196 2794.733 18.771 0.672
2021-06-23 1177 2809.059 14.326 0.51
2021-06-24 1188 2811.933 2.874 0.102
2021-06-25 1183 2815.415 3.482 0.124
2021-06-26 1184 2824.022 8.607 0.305
2021-06-27 1184 2824.022 0 0
2021-06-28 1190 2824.022 0 0
2021-06-29 1189 2828.193 4.171 0.147
2021-06-30 1182 2831.847 3.654 0.129
2021-07-01 1176 2831.093 -0.754 -0.027
2021-07-02 1174 2838.66 7.567 0.267
2021-07-03 1168 2846.983 8.323 0.292
2021-07-04 1168 2846.983 0 0
2021-07-05 1167 2846.983 0 0
2021-07-06 1164 2846.983 0 0
2021-07-07 1173 2840.166 -6.817 -0.24
2021-07-08 1167 2846.608 6.442 0.226
2021-07-09 1165 2845.146 -1.462 -0.051
2021-07-10 1161 2860.986 15.84 0.554
2021-07-11 1162 2860.986 0 0
2021-07-12 1172 2860.986 0 0
2021-07-13 1162 2863.141 2.155 0.075
2021-07-14 1161 2854.599 -8.542 -0.299
2021-07-15 1161 2856.554 1.955 0.068
2021-07-16 1156 2853.375 -3.179 -0.111
2021-07-17 1159 2846.683 -6.692 -0.235
2021-07-18 1159 2846.683 0 0
2021-07-19 1155 2846.683 0 0
2021-07-20 1159 2842.916 -3.767 -0.133
2021-07-21 1157 2865.301 22.385 0.781
2021-07-22 1151 2871.867 6.566 0.229
2021-07-23 1149 2871.628 -0.239 -0.008
2021-07-24 1142 2886.459 14.831 0.514
2021-07-25 1142 2886.459 0 0
2021-07-26 1135 2886.459 0 0
2021-07-27 1126 2885.149 -1.31 -0.045
2021-07-28 1122 2880.617 -4.532 -0.157
2021-07-29 1139 2876.646 -3.971 -0.138
2021-07-30 1133 2884.812 8.166 0.283
2021-07-31 1134 2885.877 1.065 0.037
2021-08-01 1134 2885.877 0 0
2021-08-02 1138 2885.877 0 0
2021-08-03 1148 2881.923 -3.954 -0.137
2021-08-04 1136 2896.89 14.967 0.517
2021-08-05 1144 2882.364 -14.526 -0.504
2021-08-06 1142 2888.797 6.433 0.223
2021-08-07 1136 2885.897 -2.9 -0.1
2021-08-08 1136 2885.897 0 0
2021-08-09 1135 2885.897 0 0
2021-08-10 1138 2889.84 3.943 0.136
2021-08-11 1132 2906.935 17.095 0.588
2021-08-13 1137 2900.552 -6.383 -0.22
2021-08-14 1143 2893.11 -7.442 -0.257
2021-08-15 1142 2893.11 0 0
2021-08-16 1140 2893.11 0 0
2021-08-17 1135 2893.11 0 0
2021-08-18 1141 2869.623 -23.487 -0.818
2021-08-19 1149 2857.332 -12.291 -0.43
2021-08-20 1142 2852.644 -4.688 -0.164
2021-08-21 1136 2872.025 19.381 0.675
2021-08-22 1136 2872.025 0 0
2021-08-23 1139 2872.025 0 0
2021-08-24 1155 2872.857 0.832 0.029
2021-08-25 1155 2875.726 2.869 0.1
2021-08-26 1144 2886.975 11.249 0.39
2021-08-27 1168 2853.475 -33.5 -1.174
2021-08-28 1210 2785.916 -67.559 -2.425
2021-08-29 1211 2785.916 0 0
2021-08-30 1215 2785.916 0 0
2021-08-31 1228 2776.733 -9.183 -0.331
2021-09-01 1235 2771.912 -4.821 -0.174
2021-09-02 1232 2778.638 6.726 0.242
2021-09-03 1234 2771.177 -7.461 -0.269
2021-09-04 1234 2772.916 1.739 0.063
2021-09-05 1235 2772.916 0 0
2021-09-06 1241 2772.916 0 0
2021-09-07 1239 2772.916 0 0
2021-09-08 1235 2762.525 -10.391 -0.376
2021-09-09 1230 2768.155 5.63 0.203
2021-09-10 1231 2774.826 6.671 0.24
2021-09-11 1237 2769.644 -5.182 -0.187
2021-09-12 1237 2769.644 0 0
2021-09-13 1233 2769.644 0 0
2021-09-14 1232 2765.404 -4.24 -0.153
2021-09-15 1237 2764.372 -1.032 -0.037
2021-09-16 1216 2775.691 11.319 0.408
2021-09-17 1203 2791.598 15.907 0.57
2021-09-18 1205 2786.078 -5.52 -0.198
2021-09-19 1203 2786.078 0 0
2021-09-20 1198 2786.078 0 0
2021-09-21 1211 2770.838 -15.24 -0.55
2021-09-22 1209 2770.838 0 0
2021-09-23 1212 2790.171 19.333 0.693
2021-09-24 1210 2795.742 5.571 0.199
2021-09-25 1206 2796.838 1.096 0.039
2021-09-26 1206 2796.838 0 0
2021-09-27 1199 2796.838 0 0
2021-09-28 1192 2798.483 1.645 0.059
2021-09-29 1193 2779.238 -19.245 -0.692
2021-09-30 1191 2789.924 10.686 0.383
2021-10-01 1209 2749.916 -40.008 -1.455
2021-10-02 1216 2747.082 -2.834 -0.103
2021-10-03 1216 2747.082 0 0
2021-10-05 1226 2735.578 -11.504 -0.421
2021-10-06 1222 2738.499 2.921 0.107
2021-10-07 1228 2737.295 -1.204 -0.044
2021-10-08 1221 2750.582 13.287 0.483
2021-10-09 1225 2746.248 -4.334 -0.158
2021-10-10 1225 2746.248 0 0
2021-10-11 1220 2746.248 0 0
2021-10-12 1218 2741.26 -4.988 -0.182
2021-10-13 1221 2747.505 6.245 0.227
2021-10-14 1220 2757.97 10.465 0.379
2021-10-15 1221 2775.753 17.783 0.641
2021-10-16 1218 2782.696 6.943 0.25
2021-10-17 1217 2782.696 0 0
2021-10-18 1218 2782.696 0 0
2021-10-19 1208 2802.227 19.531 0.697
2021-10-20 1214 2796.296 -5.931 -0.212
2021-10-21 1216 2796.658 0.362 0.013
2021-10-22 1200 2819.888 23.23 0.824
2021-10-23 1200 2821.724 1.836 0.065
2021-10-25 1198 2821.724 0 0
2021-10-26 1196 2826.789 5.065 0.179
2021-10-27 1201 2813.321 -13.468 -0.479
2021-10-28 1205 2803.06 -10.261 -0.366
2021-10-29 1208 2803.194 0.134 0.005
2021-10-30 1203 2808.574 5.38 0.192
2021-10-31 1203 2808.574 0 0
2021-11-01 1202 2808.574 0 0
2021-11-02 1197 2812.819 4.245 0.151
2021-11-03 1192 2817.268 4.449 0.158
2021-11-04 1194 2817.268 0 0
2021-11-05 1191 2834.555 17.287 0.61
2021-11-06 1192 2834.001 -0.554 -0.02
2021-11-07 1192 2834.001 0 0
2021-11-08 1191 2834.001 0 0
2021-11-09 1201 2833.572 -0.429 -0.015
2021-11-10 1198 2833.572 0 0
2021-11-11 1199 2830.73 -2.842 -0.1
2021-11-12 1196 2836.088 5.358 0.189
2021-11-13 1192 2845.975 9.887 0.347
2021-11-14 1192 2845.975 0 0
2021-11-15 1189 2845.975 0 0
2021-11-16 1192 2853.018 7.043 0.247
2021-11-17 1187 2861.08 8.062 0.282
2021-11-18 1196 2827.511 -33.569 -1.187
2021-11-19 1195 2831.031 3.52 0.124
2021-11-20 1198 2823.857 -7.174 -0.254
2021-11-21 1198 2823.857 0 0
2021-11-22 1197 2823.857 0 0
2021-11-23 1182 2821.636 -2.221 -0.079
2021-11-24 1183 2820.857 -0.779 -0.028
2021-11-25 1188 2817.48 -3.377 -0.12
2021-11-26 1175 2817.48 0 0
2021-11-27 1184 2803.91 -13.57 -0.484
2021-11-28 1184 2803.91 0 0
2021-11-29 1182 2803.91 0 0
2021-11-30 1172 2806.456 2.546 0.091
2021-12-01 1185 2784.296 -22.16 -0.796
2021-12-02 1193 2764.608 -19.688 -0.712
2021-12-03 1177 2786.294 21.686 0.778
2021-12-04 1180 2778.514 -7.78 -0.28
2021-12-05 1180 2778.514 0 0
2021-12-06 1175 2778.514 0 0
2021-12-07 1187 2782.944 4.43 0.159
2021-12-08 1184 2804.937 21.993 0.784
2021-12-09 1189 2796.044 -8.893 -0.318
2021-12-10 1194 2787.55 -8.494 -0.305
2021-12-11 1189 2795.736 8.186 0.293
2021-12-12 1189 2795.736 0 0
2021-12-13 1187 2795.736 0 0
2021-12-14 1189 2771.867 -23.869 -0.861
2021-12-15 1190 2766.268 -5.599 -0.202
2021-12-16 1179 2775.261 8.993 0.324
2021-12-17 1199 2745.201 -30.06 -1.095
2021-12-18 1196 2745.564 0.363 0.013
2021-12-19 1197 2745.564 0 0
2021-12-20 1180 2745.564 0 0
2021-12-21 1200 2722.893 -22.671 -0.833
2021-12-22 1202 2739.863 16.97 0.619
2021-12-23 1209 2742.468 2.605 0.095
2021-12-24 1208 2742.468 0 0
2021-12-25 1209 2747.232 4.764 0.173
2021-12-26 1209 2747.232 0 0
2021-12-27 1205 2747.232 0 0
2021-12-28 1202 2759.139 11.907 0.432
2021-12-29 1199 2759.29 0.151 0.005
2021-12-30 1202 2768.203 8.913 0.322
2021-12-31 1198 2774.797 6.594 0.238
2022-01-02 1197 2778.38 3.583 0.129
2022-01-03 1199 2778.38 0 0
2022-01-04 1199 2778.38 0 0
2022-01-05 1189 2774.867 -3.513 -0.127
2022-01-06 1199 2744.057 -30.81 -1.123
2022-01-07 1187 2753.245 9.188 0.334
2022-01-08 1203 2740.219 -13.026 -0.475
2022-01-09 1203 2740.219 0 0
2022-01-10 1193 2740.219 0 0
2022-01-11 1199 2728.652 -11.567 -0.424
2022-01-12 1213 2730.106 1.454 0.053
2022-01-13 1211 2727.091 -3.015 -0.111
2022-01-14 1215 2724.191 -2.9 -0.106
2022-01-15 1213 2706.409 -17.782 -0.657
2022-01-16 1221 2706.409 0 0
2022-01-17 1222 2706.409 0 0
2022-01-18 1225 2706.409 0 0
2022-01-19 1226 2695.095 -11.314 -0.42
2022-01-20 1206 2691.657 -3.438 -0.128
2022-01-22 1221 2660.331 -31.326 -1.178
2022-01-23 1221 2660.331 0 0
2022-01-24 1213 2660.331 0 0
2022-01-25 1187 2693.384 33.053 1.227
2022-01-26 1195 2672.453 -20.931 -0.783
2022-01-27 1208 2652.433 -20.02 -0.755
2022-01-28 1201 2649.632 -2.801 -0.106
2022-01-29 1193 2671.628 21.996 0.823
2022-01-30 1193 2671.628 0 0
2022-01-31 1206 2671.628 0 0
2022-02-01 1204 2691.567 19.939 0.741
2022-02-02 1204 2699.449 7.882 0.292
2022-02-03 1197 2697.009 -2.44 -0.09
2022-02-04 1222 2675.804 -21.205 -0.792
2022-02-05 1223 2671.43 -4.374 -0.164
2022-02-06 1223 2671.43 0 0
2022-02-07 1224 2671.43 0 0
2022-02-08 1231 2664.077 -7.353 -0.276
2022-02-09 1237 2677.605 13.528 0.505
2022-02-10 1220 2693.225 15.62 0.58
2022-02-11 1222 2678.584 -14.641 -0.547
2022-02-12 1217 2666.335 -12.249 -0.459
2022-02-13 1218 2666.335 0 0
2022-02-14 1208 2666.335 0 0
2022-02-15 1222 2659.581 -6.754 -0.254
2022-02-16 1226 2674.32 14.739 0.551
2022-02-17 1220 2670.826 -3.494 -0.131
2022-02-18 1225 2654.757 -16.069 -0.605
2022-02-19 1223 2654.076 -0.681 -0.026
2022-02-20 1223 2654.076 0 0
2022-02-21 1216 2654.076 0 0
2022-02-22 1213 2654.076 0 0
2022-02-23 1221 2618.584 -35.492 -1.355
2022-02-24 1228 2595.641 -22.943 -0.884
2022-02-25 1224 2614.701 19.06 0.729
2022-02-26 1215 2643.737 29.036 1.098
2022-02-27 1216 2643.737 0 0
2022-02-28 1210 2643.737 0 0
2022-03-01 1200 2646.115 2.378 0.09
2022-03-02 1192 2657.702 11.587 0.436
2022-03-03 1183 2681.671 23.969 0.894
2022-03-04 1174 2673.472 -8.199 -0.307
2022-03-05 1165 2662.793 -10.679 -0.401
2022-03-06 1166 2662.793 0 0
2022-03-07 1150 2662.793 0 0
2022-03-08 1146 2632.47 -30.323 -1.152
2022-03-09 1157 2632.606 0.136 0.005
2022-03-10 1158 2658.991 26.385 0.992
2022-03-11 1155 2656.019 -2.972 -0.112
2022-03-12 1160 2640.406 -15.613 -0.591
2022-03-13 1160 2640.406 0 0
2022-03-14 1150 2640.406 0 0
2022-03-15 1149 2638.837 -1.569 -0.059
2022-03-16 1156 2665.019 26.182 0.982
2022-03-17 1166 2681.538 16.519 0.616
2022-03-18 1165 2694.544 13.006 0.483
2022-03-19 1153 2704.525 9.981 0.369
2022-03-20 1153 2704.525 0 0
2022-03-21 1153 2704.525 0 0
2022-03-22 1166 2691.106 -13.419 -0.499
2022-03-23 1161 2695.819 4.713 0.175
2022-03-24 1167 2683.134 -12.685 -0.473
2022-03-25 1162 2689.889 6.755 0.251
2022-03-26 1166 2685.517 -4.372 -0.163
2022-03-27 1166 2685.517 0 0
2022-03-28 1160 2685.517 0 0
2022-03-29 1162 2686.708 1.191 0.044
2022-03-30 1160 2710.977 24.269 0.895
2022-04-01 1170 2691.13 -19.847 -0.737
2022-04-02 1184 2653.93 -37.2 -1.402
2022-04-03 1184 2653.93 0 0
2022-04-05 1212 2672.399 18.469 0.691
2022-04-06 1213 2668.199 -4.2 -0.157
2022-04-07 1204 2664.073 -4.126 -0.155
2022-04-08 1189 2688.7 24.627 0.916
2022-04-09 1185 2702.032 13.332 0.493
2022-04-10 1185 2702.032 0 0
2022-04-11 1175 2702.032 0 0
2022-04-12 1178 2695.048 -6.984 -0.259
2022-04-13 1178 2689.696 -5.352 -0.199
2022-04-14 1174 2699.36 9.664 0.358
2022-04-15 1176 2693.045 -6.315 -0.234
2022-04-16 1176 2693.045 0 0
2022-04-17 1176 2693.045 0 0
2022-04-18 1173 2693.045 0 0
2022-04-19 1176 2690.706 -2.339 -0.087
2022-04-20 1166 2716.875 26.169 0.963
2022-04-21 1154 2719.542 2.667 0.098
2022-04-22 1156 2704.183 -15.359 -0.568
2022-04-23 1168 2679.944 -24.239 -0.904
2022-04-24 1168 2679.944 0 0
2022-04-25 1148 2679.944 0 0
2022-04-26 1134 2690.218 10.274 0.382
2022-04-27 1145 2669.916 -20.302 -0.76
2022-04-28 1148 2661.172 -8.744 -0.329
2022-04-29 1146 2656.261 -4.911 -0.185
2022-04-30 1161 2627.778 -28.483 -1.084
2022-05-01 1161 2627.778 0 0
2022-05-02 1162 2627.778 0 0
2022-05-03 1156 2642.066 14.288 0.541
2022-05-04 1153 2642.066 0 0
2022-05-05 1134 2669.498 27.432 1.028
2022-05-06 1134 2632.476 -37.022 -1.406
2022-05-07 1135 2622.441 -10.035 -0.383
2022-05-08 1135 2622.441 0 0
2022-05-09 1126 2622.441 0 0
2022-05-10 1128 2608.838 -13.603 -0.521
2022-05-11 1131 2597.193 -11.645 -0.448
2022-05-12 1135 2579.224 -17.969 -0.697
2022-05-13 1131 2597.191 17.967 0.692
2022-05-14 1128 2615.692 18.501 0.707
2022-05-15 1128 2615.692 0 0
2022-05-16 1124 2615.692 0 0
2022-05-17 1132 2616.307 0.615 0.024
2022-05-18 1128 2624.377 8.07 0.308
2022-05-19 1173 2513.494 -110.883 -4.412
2022-05-20 1187 2509.867 -3.627 -0.145
2022-05-21 1195 2494.594 -15.273 -0.612
2022-05-22 1195 2494.594 0 0
2022-05-23 1196 2494.594 0 0
2022-05-24 1185 2493.851 -0.743 -0.03
2022-05-25 1189 2491.511 -2.34 -0.094
2022-05-26 1181 2518.49 26.979 1.071
2022-05-27 1171 2549.852 31.362 1.23
2022-05-28 1165 2569.642 19.79 0.77
2022-05-29 1165 2569.642 0 0
2022-05-30 1166 2569.642 0 0
2022-05-31 1175 2569.642 0 0
2022-06-01 1183 2555.024 -14.618 -0.572
2022-06-02 1189 2542.011 -13.013 -0.512
2022-06-03 1181 2560.092 18.081 0.706
2022-06-04 1178 2554.24 -5.852 -0.229
2022-06-05 1178 2554.24 0 0
2022-06-06 1185 2554.24 0 0
2022-06-07 1192 2561.006 6.766 0.264
2022-06-08 1189 2559.266 -1.74 -0.068
2022-06-09 1180 2554.764 -4.502 -0.176
2022-06-10 1173 2550.254 -4.51 -0.177
2022-06-11 1180 2527.518 -22.736 -0.9
2022-06-12 1180 2527.518 0 0
2022-06-13 1158 2527.518 0 0
2022-06-14 1164 2498.795 -28.723 -1.149
2022-06-15 1165 2500.024 1.229 0.049
2022-06-16 1163 2510.344 10.32 0.411
2022-06-17 1179 2480.862 -29.482 -1.188
2022-06-18 1176 2485.207 4.345 0.175
2022-06-19 1176 2485.207 0 0
2022-06-20 1176 2485.207 0 0
2022-06-21 1180 2485.207 0 0
2022-06-22 1174 2498.244 13.037 0.522
2022-06-23 1178 2498.852 0.608 0.024
2022-06-24 1184 2518.039 19.187 0.762
2022-06-25 1171 2540.92 22.881 0.901
2022-06-26 1171 2540.92 0 0
2022-06-27 1177 2540.92 0 0
2022-06-28 1176 2537.596 -3.324 -0.131
2022-06-29 1175 2515.024 -22.572 -0.897
2022-06-30 1175 2508.95 -6.074 -0.242
2022-07-01 1182 2498.109 -10.841 -0.434
2022-07-02 1179 2503.986 5.877 0.235
2022-07-03 1179 2503.986 0 0
2022-07-04 1188 2503.986 0 0
2022-07-05 1188 2503.986 0 0
2022-07-06 1171 2518.502 14.516 0.576
2022-07-07 1182 2514.388 -4.114 -0.164
2022-07-08 1171 2532.325 17.937 0.708
2022-07-09 1176 2528.627 -3.698 -0.146
2022-07-10 1176 2528.627 0 0
2022-07-11 1164 2528.627 0 0
2022-07-12 1154 2518.941 -9.686 -0.385
2022-07-13 1151 2516.803 -2.138 -0.085
2022-07-14 1153 2521.228 4.425 0.176
2022-07-15 1153 2521.973 0.745 0.03
2022-07-16 1152 2535.216 13.243 0.522
2022-07-17 1152 2535.216 0 0
2022-07-18 1153 2535.216 0 0
2022-07-19 1163 2536.867 1.651 0.065
2022-07-20 1165 2556.244 19.377 0.758
2022-07-21 1167 2563.123 6.879 0.268
2022-07-22 1162 2558.335 -4.788 -0.187
2022-07-23 1167 2552.629 -5.706 -0.224
2022-07-24 1167 2552.629 0 0
2022-07-25 1163 2552.629 0 0
2022-07-26 1171 2552.629 0 0
2022-07-27 1178 2525.669 -26.96 -1.067
2022-07-28 1178 2525.669 0 0
2022-07-29 1180 2559.065 33.396 1.305
2022-07-30 1181 2564.7 5.635 0.22
2022-07-31 1181 2564.7 0 0
2022-08-01 1184 2564.7 0 0
2022-08-02 1170 2576.27 11.57 0.449
2022-08-03 1176 2569.376 -6.894 -0.268
2022-08-04 1174 2578.865 9.489 0.368
2022-08-05 1178 2575.106 -3.759 -0.146
2022-08-06 1174 2582 6.894 0.267
2022-08-07 1174 2582 0 0
2022-08-08 1178 2582 0 0
2022-08-09 1011 2944.053 362.053 12.298
2022-08-10 1016 2927.702 -16.351 -0.558
2022-08-11 1030 2948.673 20.971 0.711
2022-08-12 1027 2955.615 6.942 0.235
2022-08-13 1018 2972.49 16.875 0.568
2022-08-14 1017 2972.49 0 0
2022-08-15 1019 2972.49 0 0
2022-08-16 1013 2978.872 6.382 0.214
2022-08-17 997 3008.16 29.288 0.974
2022-08-18 1000 2989.458 -18.702 -0.626
2022-08-19 992 2986.149 -3.309 -0.111
2022-08-20 992 2964.104 -22.045 -0.744
2022-08-21 992 2964.104 0 0
2022-08-22 991 2964.104 0 0
2022-08-23 995 2940.407 -23.697 -0.806
2022-08-24 988 2939.932 -0.475 -0.016
2022-08-25 993 2937.212 -2.72 -0.093
2022-08-26 985 2952.65 15.438 0.523
2022-08-27 995 2920.326 -32.324 -1.107
2022-08-28 995 2920.326 0 0
2022-08-29 992 2920.326 0 0
2022-08-30 996 2919.94 -0.386 -0.013
2022-08-31 992 2912.099 -7.841 -0.269
2022-09-01 991 2907.085 -5.014 -0.172
2022-09-03 988 2904.482 -2.603 -0.09
2022-09-04 989 2904.482 0 0
2022-09-05 974 2930.65 26.168 0.893
2022-09-06 989 2930.65 0 0
2022-09-07 981 2926.393 -4.257 -0.145
2022-09-08 972 2954.965 28.572 0.967
2022-09-09 982 2958.494 3.529 0.119
2022-09-11 982 2966.528 8.034 0.271
2022-09-12 982 2966.528 0 0
2022-09-13 974 2974.951 8.423 0.283
2022-09-14 981 2937.187 -37.764 -1.286
2022-09-15 979 2933.471 -3.716 -0.127
2022-09-16 970 2927.18 -6.291 -0.215
2022-09-17 975 2924.143 -3.037 -0.104
2022-09-18 975 2924.143 0 0
2022-09-19 970 2924.143 0 0
2022-09-20 970 2929.531 5.388 0.184
2022-09-21 966 2917.742 -11.789 -0.404
2022-09-22 967 2915.343 -2.399 -0.082
2022-09-23 964 2902.176 -13.167 -0.454
2022-09-24 965 2880.726 -21.45 -0.745
2022-09-25 966 2880.726 0 0
2022-09-26 963 2880.726 0 0
2022-09-27 982 2886.859 6.133 0.212
2022-09-28 980 2888.201 1.342 0.046
2022-09-29 979 2888.201 0 0
2022-09-30 972 2892.181 3.98 0.138
2022-10-01 978 2877.587 -14.594 -0.507
2022-10-02 976 2877.587 0 0
2022-10-03 980 2877.587 0 0
2022-10-04 980 2896.395 18.808 0.649
2022-10-05 978 2912.152 15.757 0.541
2022-10-06 978 2904.367 -7.785 -0.268
2022-10-07 975 2899.429 -4.938 -0.17
2022-10-08 980 2876.301 -23.128 -0.804
2022-10-09 980 2876.301 0 0
2022-10-10 977 2876.301 0 0
2022-10-11 964 2879.863 3.562 0.124
2022-10-12 964 2896.11 16.247 0.561
2022-10-13 972 2889.248 -6.862 -0.238
2022-10-14 966 2895.103 5.855 0.202
2022-10-15 978 2874.668 -20.435 -0.711
2022-10-16 977 2874.668 0 0
2022-10-17 978 2874.668 0 0
2022-10-18 978 2887.451 12.783 0.443
2022-10-19 965 2905.318 17.867 0.615
2022-10-20 964 2895.443 -9.875 -0.341
2022-10-21 967 2888.181 -7.262 -0.251
2022-10-22 960 2908.329 20.148 0.693
2022-10-23 958 2908.329 0 0
2022-10-24 952 2908.329 0 0
2022-10-25 949 2931.819 23.49 0.801
2022-10-26 953 2943.491 11.672 0.397
2022-10-27 958 2947.33 3.839 0.13
2022-10-28 952 2951.162 3.832 0.13
2022-10-29 950 2968.218 17.056 0.575
2022-10-30 950 2968.218 0 0
2022-10-31 947 2968.218 0 0
2022-11-01 951 2961.207 -7.011 -0.237
2022-11-02 947 2961.262 0.055 0.002
2022-11-03 952 2939.719 -21.543 -0.733
2022-11-04 950 2941.991 2.272 0.077
2022-11-05 957 2940.543 -1.448 -0.049
2022-11-06 957 2940.543 0 0
2022-11-07 960 2940.543 0 0
2022-11-08 958 2949.652 9.109 0.309
2022-11-09 954 2952.985 3.333 0.113
2022-11-10 951 2952.985 0 0
2022-11-11 965 2969.737 16.752 0.564
2022-11-12 973 2975.443 5.706 0.192
2022-11-13 973 2975.443 0 0
2022-11-14 978 2975.443 0 0
2022-11-15 987 2961.717 -13.726 -0.463
2022-11-16 972 2998.405 36.688 1.224
2022-11-17 966 2984.99 -13.415 -0.449
2022-11-18 964 2982.926 -2.064 -0.069
2022-11-19 963 2991.59 8.664 0.29
2022-11-20 963 2991.59 0 0
2022-11-21 960 2991.59 0 0
2022-11-22 958 2991.59 0 0
2022-11-23 955 3000.892 9.302 0.31
2022-11-24 955 3006.652 5.76 0.192
2022-11-25 954 3006.652 0 0
2022-11-26 954 3006.652 0 0
2022-11-27 954 3009.051 2.399 0.08
2022-11-28 952 3009.051 0 0
2022-11-29 955 3008.044 -1.007 -0.033
2022-11-30 965 3005.736 -2.308 -0.077
2022-12-02 982 2998.434 -7.302 -0.244
2022-12-03 980 2994.267 -4.167 -0.139
2022-12-04 979 2994.267 0 0
2022-12-05 986 2994.267 0 0
2022-12-06 989 2977.125 -17.142 -0.576
2022-12-07 987 2966.195 -10.93 -0.368
2022-12-08 986 2965.533 -0.662 -0.022
2022-12-09 995 2966.737 1.204 0.041
2022-12-10 1002 2954.186 -12.551 -0.425
2022-12-11 1002 2954.186 0 0
2022-12-12 1000 2954.186 0 0
2022-12-13 996 2962.812 8.626 0.291
2022-12-14 1005 2959.229 -3.583 -0.121
2022-12-15 998 2955.399 -3.83 -0.13
2022-12-16 998 2937.178 -18.221 -0.62
2022-12-17 999 2925.82 -11.358 -0.388
2022-12-18 999 2925.82 0 0
2022-12-19 996 2925.82 0 0
2022-12-20 989 2925.82 0 0
2022-12-21 993 2921.736 -4.084 -0.14
2022-12-22 995 2921.736 0 0
2022-12-23 987 2922.079 0.343 0.012
2022-12-24 980 2928.56 6.481 0.221
2022-12-25 980 2928.56 0 0
2022-12-26 984 2928.56 0 0
2022-12-27 986 2928.56 0 0
2022-12-28 989 2929.686 1.126 0.038
2022-12-29 992 2918.983 -10.703 -0.367
2022-12-30 993 2927.874 8.891 0.304
2022-12-31 993 2927.553 -0.321 -0.011
2023-01-01 993 2927.553 0 0
2023-01-02 993 2927.553 0 0
2023-01-03 991 2927.553 0 0
2023-01-04 997 2930.551 2.998 0.102
2023-01-05 999 2936.237 5.686 0.194
2023-01-06 1002 2931.722 -4.515 -0.154
2023-01-07 995 2963.711 31.989 1.079
2023-01-08 995 2963.711 0 0
2023-01-09 995 2963.711 0 0
2023-01-10 1005 2953.12 -10.591 -0.359
2023-01-11 1006 2956.662 3.542 0.12
2023-01-13 1010 2960.054 3.392 0.115
2023-01-14 1011 2964.222 4.168 0.141
2023-01-15 1011 2964.222 0 0
2023-01-16 1013 2964.222 0 0
2023-01-17 1017 2964.222 0 0
2023-01-18 1009 2960.676 -3.546 -0.12
2023-01-19 1015 2944.036 -16.64 -0.565
2023-01-20 1024 2928.179 -15.857 -0.542
2023-01-21 1021 2943.247 15.068 0.512
2023-01-22 1021 2943.247 0 0
2023-01-23 1024 2943.247 0 0
2023-01-24 1018 2959.598 16.351 0.552
2023-01-25 1017 2959.598 0 0
2023-01-26 1018 2958.623 -0.975 -0.033
2023-01-27 1014 2966.353 7.73 0.261
2023-01-29 1014 2972.167 5.814 0.196
2023-01-30 1010 2972.167 0 0
2023-01-31 1012 2971.248 -0.919 -0.031
2023-02-01 1009 2986.195 14.947 0.501
2023-02-02 1007 3001.544 15.349 0.511
2023-02-03 1014 3006.41 4.866 0.162
2023-02-04 1014 3006.41 0 0
2023-02-05 1018 2991.496 -14.914 -0.499
2023-02-06 1008 2991.496 0 0
2023-02-07 1004 2986.973 -4.523 -0.151
2023-02-08 1004 2986.781 -0.192 -0.006
2023-02-09 1008 2975.62 -11.161 -0.375
2023-02-10 1006 2979.308 3.688 0.124
2023-02-11 1003 2983.595 4.287 0.144
2023-02-12 1003 2983.595 0 0
2023-02-13 1006 2983.595 0 0
2023-02-14 999 2998.813 15.218 0.507
2023-02-15 1002 2997.12 -1.693 -0.056
2023-02-16 989 3008.566 11.446 0.38
2023-02-17 992 2996.814 -11.752 -0.392
2023-02-18 993 2996.814 0 0
2023-02-19 994 2996.814 0 0
2023-02-20 993 3006.167 9.353 0.311
2023-02-21 989 3006.167 0 0
2023-02-22 993 2993.777 -12.39 -0.414
2023-02-23 990 2993.777 0 0
2023-02-24 985 2993.777 0 0
2023-02-25 981 2993.777 0 0
2023-02-26 981 2993.777 0 0
2023-02-27 985 2993.777 0 0
2023-02-28 984 2993.777 0 0
2023-03-01 991 2993.777 0 0
2023-03-02 987 2993.777 0 0
2023-03-03 994 2993.777 0 0
2023-03-04 993 2993.777 0 0
2023-03-05 993 2993.777 0 0
2023-03-06 989 2993.777 0 0
2023-03-07 983 2993.777 0 0
2023-03-08 976 2993.777 0 0
2023-03-09 972 2993.777 0 0
2023-03-10 967 2993.777 0 0
2023-03-11 962 2993.777 0 0
2023-03-12 961 2993.777 0 0
2023-03-13 957 2993.777 0 0
2023-03-14 957 2993.777 0 0
2023-03-15 956 2993.777 0 0
2023-03-16 954 2993.777 0 0
2023-03-17 957 2993.777 0 0
2023-03-18 956 2993.777 0 0
2023-03-19 956 2993.777 0 0
2023-03-20 956 2993.777 0 0
2023-03-21 963 2993.777 0 0
2023-03-22 959 2993.777 0 0
2023-03-23 959 2993.777 0 0
2023-03-24 966 2993.777 0 0
2023-03-25 961 2993.777 0 0
2023-03-26 961 2993.777 0 0
2023-03-27 961 2993.777 0 0
2023-03-28 959 2993.777 0 0
2023-03-29 964 2993.777 0 0
2023-03-30 966 2993.777 0 0
2023-03-31 972 2993.777 0 0
2023-04-01 970 2993.777 0 0
2023-04-02 969 2993.777 0 0
2023-04-03 970 2993.777 0 0
2023-04-04 971 2993.777 0 0
2023-04-05 968 2993.777 0 0
2023-04-06 1018 2993.777 0 0
2023-04-07 1021 2993.777 0 0
2023-04-08 1020 2993.777 0 0
2023-04-09 1019 2993.777 0 0
2023-04-10 1024 2993.777 0 0
2023-04-11 1028 2993.777 0 0
2023-04-12 1026 2993.777 0 0
2023-04-13 1025 2993.777 0 0
2023-04-14 1027 2993.777 0 0
2023-04-15 1026 2993.777 0 0
2023-04-16 1026 2993.777 0 0
2023-04-17 1031 2993.777 0 0
2023-04-18 1031 2993.777 0 0
2023-04-19 1026 2993.777 0 0
2023-04-20 1018 2993.777 0 0
2023-04-21 1021 2993.777 0 0
2023-04-22 1019 2993.777 0 0
2023-04-23 1019 2993.777 0 0
2023-04-24 1025 2993.777 0 0
2023-04-25 1017 2993.777 0 0
2023-04-26 1017 2993.777 0 0
2023-04-27 1019 2993.777 0 0
2023-04-28 1020 2993.777 0 0
2023-04-29 1020 2993.777 0 0
2023-04-30 1020 2993.777 0 0
2023-05-01 1021 2993.777 0 0
2023-05-02 1019 2993.777 0 0
2023-05-03 1019 2993.777 0 0
2023-05-04 1022 2993.777 0 0
2023-05-05 1021 2993.777 0 0
2023-05-06 1027 2993.777 0 0
2023-05-07 1027 2993.777 0 0
2023-05-08 1029 2993.777 0 0
2023-05-09 1024 2993.777 0 0
2023-05-10 1024 2993.777 0 0
2023-05-11 1028 2993.777 0 0
2023-05-12 1017 2993.777 0 0
2023-05-13 1018 2993.777 0 0
2023-05-14 1019 2993.777 0 0
2023-05-15 1024 2993.777 0 0
2023-05-16 1021 2993.777 0 0
2023-05-17 1017 2993.777 0 0
2023-05-18 1014 2993.777 0 0
2023-05-19 1015 2993.777 0 0
2023-05-20 1017 2983.752 -10.025 -0.336
2023-05-21 1017 2983.752 0 0
2023-05-22 1021 2983.752 0 0
2023-05-23 1021 2983.752 0 0
2023-05-24 1023 2963.237 -20.515 -0.692
2023-05-25 1020 2959.196 -4.041 -0.137
2023-05-26 1023 2955.707 -3.489 -0.118
2023-05-27 1017 2961.221 5.514 0.186
2023-05-28 1017 2961.221 0 0
2023-05-29 1013 2961.221 0 0
2023-05-30 1013 2961.221 0 0
2023-05-31 1012 2959.397 -1.824 -0.062
2023-06-01 1009 2952.351 -7.046 -0.239
2023-06-02 1028 2953.433 1.082 0.037
2023-06-03 1022 2963.908 10.475 0.353
2023-06-04 1022 2963.908 0 0
2023-06-05 1023 2963.908 0 0
2023-06-06 1016 2964.949 1.041 0.035
2023-06-07 1018 2968.531 3.582 0.121
2023-06-08 1015 2968.531 0 0
2023-06-09 1014 2980.483 11.952 0.401
2023-06-10 1016 2977.302 -3.181 -0.107
2023-06-11 1017 2977.302 0 0
2023-06-12 1015 2977.302 0 0
2023-06-13 1012 2983.832 6.53 0.219
2023-06-14 1017 2983.832 0 0
2023-06-15 1029 2998.976 15.144 0.505
2023-06-16 1026 3009.828 10.852 0.361
2023-06-17 1033 2998.442 -11.386 -0.38
2023-06-18 1033 2998.442 0 0
2023-06-19 1028 2998.442 0 0
2023-06-20 1027 2998.442 0 0
2023-06-21 1022 2990.922 -7.52 -0.251
2023-06-22 1021 2994.185 3.263 0.109
2023-06-23 1015 3000.053 5.868 0.196
2023-06-24 1012 2998.737 -1.316 -0.044
2023-06-25 1012 2998.737 0 0
2023-06-26 1007 2998.737 0 0
2023-06-27 1009 2998.737 0 0
2023-06-28 1015 3003.36 4.623 0.154
2023-06-29 1010 3007.429 4.069 0.135
2023-06-30 1013 3005.744 -1.685 -0.056
2023-07-01 1008 3019.891 14.147 0.468
2023-07-02 1008 3019.891 0 0
2023-07-03 1012 3019.891 0 0
2023-07-04 1011 3024.344 4.453 0.147
2023-07-05 1015 3024.344 0 0
2023-07-06 1007 3022.502 -1.842 -0.061
2023-07-07 1006 3014.825 -7.677 -0.255
2023-07-08 1014 3000.231 -14.594 -0.486
2023-07-09 1014 3000.231 0 0
2023-07-10 1015 3000.231 0 0
2023-07-11 1016 3011.565 11.334 0.376
2023-07-12 1022 3016.981 5.416 0.18
2023-07-13 1028 3022.649 5.668 0.188
2023-07-14 1031 3017.554 -5.095 -0.169
2023-07-15 1031 3019.2 1.646 0.055
2023-07-16 1031 3019.2 0 0
2023-07-17 1031 3019.2 0 0
2023-07-18 1025 3021.921 2.721 0.09
2023-07-19 1029 3023.276 1.355 0.045
2023-07-20 1023 3027.301 4.025 0.133
2023-07-21 1026 3031.5 4.199 0.139
2023-07-22 1025 3030.727 -0.773 -0.026
2023-07-23 1025 3030.727 0 0
2023-07-24 1022 3030.727 0 0
2023-07-25 1025 3037.036 6.309 0.208
2023-07-26 1022 3037.461 0.425 0.014
2023-07-27 1026 3041.036 3.575 0.118
2023-07-28 1030 3032.289 -8.747 -0.288
2023-07-29 1029 3038.064 5.775 0.19
2023-07-30 1029 3038.064 0 0
2023-07-31 1025 3038.064 0 0
2023-08-01 1027 3038.064 0 0
2023-08-02 1013 3032.328 -5.736 -0.189
2023-08-03 1012 3029.894 -2.434 -0.08
2023-08-04 930 3242.652 212.758 6.561
2023-08-05 934 3227.313 -15.339 -0.475
2023-08-06 934 3227.313 0 0
2023-08-07 934 3227.313 0 0
2023-08-08 931 3238.224 10.911 0.337
2023-08-09 935 3234.937 -3.287 -0.102
2023-08-10 935 3236.823 1.886 0.058
2023-08-11 933 3235.273 -1.55 -0.048
2023-08-12 930 3241.489 6.216 0.192
2023-08-13 930 3241.489 0 0
2023-08-14 927 3241.489 0 0
2023-08-15 918 3238.936 -2.553 -0.079
2023-08-16 920 3230.943 -7.993 -0.247
2023-08-17 913 3230.956 0.013 0
2023-08-18 916 3208.749 -22.207 -0.692
2023-08-19 911 3218.177 9.428 0.293
2023-08-20 912 3218.177 0 0
2023-08-21 910 3218.177 0 0
2023-08-22 912 3212.382 -5.795 -0.18
2023-08-23 917 3198.809 -13.573 -0.424
2023-08-24 919 3207.58 8.771 0.273
2023-08-25 919 3194.324 -13.256 -0.415
2023-08-26 917 3195.633 1.309 0.041
2023-08-27 917 3195.633 0 0
2023-08-28 926 3195.633 0 0
2023-08-29 930 3203.799 8.166 0.255
2023-08-30 927 3217.77 13.971 0.434
2023-08-31 926 3217.77 0 0
2023-09-01 930 3229.699 11.929 0.369
2023-09-02 931 3226.619 -3.08 -0.095
2023-09-03 931 3226.619 0 0
2023-09-04 930 3226.619 0 0
2023-09-05 930 3226.619 0 0
2023-09-06 923 3226.619 0 0
2023-09-07 920 3226.619 0 0
2023-09-08 923 3226.619 0 0
2023-09-09 928 3226.619 0 0
2023-09-10 920 3236.75 10.131 0.313
2023-09-11 920 3236.75 0 0
2023-09-12 919 3236.75 0 0
2023-09-13 920 3236.75 0 0
2023-09-14 923 3236.75 0 0
2023-09-15 924 3236.75 0 0
2023-09-16 924 3236.75 0 0
2023-09-17 923 3236.75 0 0
2023-09-18 920 3236.75 0 0
2023-09-19 923 3236.75 0 0
2023-09-20 918 3236.75 0 0
2023-09-21 910 3236.75 0 0
2023-09-22 907 3236.75 0 0
2023-09-23 908 3236.75 0 0
2023-09-24 907 3236.75 0 0
2023-09-25 909 3236.75 0 0
2023-09-26 903 3236.75 0 0
2023-09-27 903 3236.75 0 0
2023-09-28 900 3236.75 0 0
2023-09-29 901 3236.75 0 0
2023-09-30 903 3236.75 0 0
2023-10-01 903 3236.75 0 0
2023-10-02 901 3236.75 0 0
2023-10-03 900 3236.75 0 0
2023-10-04 895 3236.75 0 0
2023-10-05 889 3236.75 0 0
2023-10-06 894 3236.75 0 0
2023-10-07 893 3236.75 0 0
2023-10-08 893 3236.75 0 0
2023-10-09 895 3236.75 0 0
2023-10-10 895 3236.75 0 0
2023-10-11 902 3236.75 0 0
2023-10-12 900 3236.75 0 0
2023-10-13 906 3203.466 -33.284 -1.039
2023-10-14 905 3207.658 4.192 0.131
2023-10-15 905 3207.658 0 0
2023-10-16 902 3207.658 0 0
2023-10-17 901 3220.766 13.108 0.407
2023-10-18 902 3220.766 0 0
2023-10-19 892 3220.219 -0.547 -0.017
2023-10-20 895 3203.596 -16.623 -0.519
2023-10-21 897 3189.545 -14.051 -0.441
2023-10-22 897 3189.545 0 0
2023-10-23 896 3189.545 0 0
2023-10-24 894 3190.607 1.062 0.033
2023-10-25 894 3197.029 6.422 0.201
2023-10-26 893 3193.793 -3.236 -0.101
2023-10-27 893 3192.415 -1.378 -0.043
2023-10-28 897 3185.003 -7.412 -0.233
2023-10-29 897 3185.003 0 0
2023-10-30 899 3185.003 0 0
2023-10-31 899 3199.59 14.587 0.456
2023-11-01 895 3201.632 2.042 0.064
2023-11-02 894 3209.639 8.007 0.249
2023-11-03 894 3218.326 8.687 0.27
2023-11-04 899 3225.971 7.645 0.237
2023-11-05 899 3225.971 0 0
2023-11-06 902 3225.971 0 0
2023-11-07 904 3229.071 3.1 0.096
2023-11-08 902 3235.072 6.001 0.185
2023-11-09 907 3226.738 -8.334 -0.258
2023-11-10 907 3226.738 0 0
2023-11-11 901 3237.572 10.834 0.335
2023-11-12 901 3237.572 0 0
2023-11-13 899 3237.572 0 0
2023-11-14 903 3242.156 4.584 0.141
2023-11-15 904 3259.791 17.635 0.541
2023-11-16 899 3281.163 21.372 0.651
2023-11-17 922 3224.834 -56.329 -1.747
2023-11-18 925 3223.183 -1.651 -0.051
2023-11-19 925 3223.183 0 0
2023-11-20 928 3223.183 0 0
2023-11-21 926 3227.837 4.654 0.144
2023-11-22 923 3230.775 2.938 0.091
2023-11-23 923 3231.384 0.609 0.019
2023-11-24 925 3231.384 0 0
2023-11-25 922 3238.351 6.967 0.215
2023-11-26 922 3238.351 0 0
2023-11-27 924 3238.351 0 0
2023-11-28 917 3239.477 1.126 0.035
2023-11-29 920 3244.998 5.521 0.17
2023-11-30 928 3234.218 -10.78 -0.333
2023-12-01 929 3238.313 4.095 0.126
2023-12-02 921 3246.014 7.701 0.237
2023-12-03 921 3246.014 0 0
2023-12-04 924 3246.014 0 0
2023-12-05 924 3249.057 3.043 0.094
2023-12-06 924 3250.737 1.68 0.052
2023-12-07 923 3247.989 -2.748 -0.085
2023-12-08 920 3247.989 0 0
2023-12-09 926 3236.791 -11.198 -0.346
2023-12-10 926 3236.791 0 0
2023-12-11 927 3236.791 0 0
2023-12-12 922 3249.717 12.926 0.398
2023-12-13 924 3252.17 2.453 0.075
2023-12-14 934 3252.17 0 0
2023-12-15 941 3271.955 19.785 0.605
2023-12-16 935 3283.302 11.347 0.346
2023-12-17 935 3283.302 0 0
2023-12-18 933 3283.302 0 0
2023-12-19 922 3300.449 17.147 0.52
2023-12-20 921 3305.318 4.869 0.147
2023-12-21 933 3283.647 -21.671 -0.66
2023-12-22 929 3295.359 11.712 0.355
2023-12-23 929 3302.752 7.393 0.224
2023-12-24 929 3302.752 0 0
2023-12-25 929 3302.752 0 0
