2019-11-07 978 2563.167 0 0
2020-01-19 1014 2572.942 9.775 0.381
2020-02-07 1008 2561.974 -10.968 -0.426
2020-02-15 1011 2573.528 11.554 0.451
2020-02-16 1011 2573.528 0 0
2020-02-17 1011 2569.812 -3.716 -0.144
2020-02-18 1012 2569.812 0 0
2020-02-19 1005 2581.892 12.08 0.47
2020-02-20 1004 2584.635 2.743 0.106
2020-02-21 1002 2592.537 7.902 0.306
2020-02-22 1004 2584.012 -8.525 -0.329
2020-02-23 1005 2584.012 0 0
2020-02-24 997 2584.012 0 0
2020-02-25 1000 2558.747 -25.265 -0.978
2020-02-26 995 2533.54 -25.207 -0.985
2020-02-27 983 2525.531 -8.009 -0.316
2020-02-28 980 2493.031 -32.5 -1.287
2020-02-29 985 2473.835 -19.196 -0.77
2020-03-01 988 2473.835 0 0
2020-03-02 996 2473.835 0 0
2020-03-03 983 2519.782 45.947 1.857
2020-03-04 989 2498.982 -20.8 -0.825
2020-03-05 973 2536.498 37.516 1.501
2020-03-06 971 2512.297 -24.201 -0.954
2020-03-07 971 2507.743 -4.554 -0.181
2020-03-08 972 2507.743 0 0
2020-03-09 953 2507.743 0 0
2020-03-10 951 2478.762 -28.981 -1.156
2020-03-11 926 2506.118 27.356 1.104
2020-03-12 911 2454.247 -51.871 -2.07
2020-03-13 937 2374.674 -79.573 -3.242
2020-03-14 919 2426.797 52.123 2.195
2020-03-15 919 2426.797 0 0
2020-03-16 896 2426.797 0 0
2020-03-17 917 2337.171 -89.626 -3.693
2020-03-18 889 2387.654 50.483 2.16
2020-03-19 895 2355.682 -31.972 -1.339
2020-03-20 898 2363.613 7.931 0.337
2020-03-21 915 2321.554 -42.059 -1.779
2020-03-22 915 2321.554 0 0
2020-03-23 905 2321.554 0 0
2020-03-24 902 2310.736 -10.818 -0.466
2020-03-25 912 2348.291 37.555 1.625
2020-03-26 930 2349.052 0.761 0.032
2020-03-27 935 2380.046 30.994 1.319
2020-03-28 931 2356.373 -23.673 -0.995
2020-03-29 931 2356.373 0 0
2020-03-30 931 2356.373 0 0
2020-03-31 928 2368.623 12.25 0.52
2020-04-01 934 2350.348 -18.275 -0.772
2020-04-02 932 2336.909 -13.439 -0.572
2020-04-03 928 2342.132 5.223 0.224
2020-04-04 933 2328.263 -13.869 -0.592
2020-04-05 933 2328.263 0 0
2020-04-06 933 2328.263 0 0
2020-04-07 926 2387.687 59.424 2.552
2020-04-08 944 2394.992 7.305 0.306
2020-04-09 949 2418.891 23.899 0.998
2020-04-10 956 2421.502 2.611 0.108
2020-04-11 956 2421.502 0 0
2020-04-12 956 2421.502 0 0
2020-04-13 948 2421.502 0 0
2020-04-14 956 2421.36 -0.142 -0.006
2020-04-15 942 2453.607 32.247 1.332
2020-04-16 945 2432.584 -21.023 -0.857
2020-04-17 942 2454.363 21.779 0.895
2020-04-18 949 2469.229 14.866 0.606
2020-04-19 949 2469.229 0 0
2020-04-20 947 2469.229 0 0
2020-04-21 943 2453.089 -16.14 -0.654
2020-04-23 947 2447.661 -5.428 -0.221
2020-04-24 946 2444.464 -3.197 -0.131
2020-04-25 936 2468.736 24.272 0.993
2020-04-26 936 2468.736 0 0
2020-04-27 941 2468.736 0 0
2020-04-28 949 2479.324 10.588 0.429
2020-04-29 957 2478.8 -0.524 -0.021
2020-04-30 955 2491.724 12.924 0.521
2020-05-01 959 2471.765 -19.959 -0.801
2020-05-02 961 2457.903 -13.862 -0.561
2020-05-03 961 2457.903 0 0
2020-05-04 952 2457.903 0 0
2020-05-05 947 2472.307 14.404 0.586
2020-05-06 946 2480.6 8.293 0.335
2020-05-07 942 2488.414 7.814 0.315
2020-05-08 952 2480.945 -7.469 -0.3
2020-05-09 948 2501.461 20.516 0.827
2020-05-10 948 2501.461 0 0
2020-05-11 946 2501.461 0 0
2020-05-12 944 2509.767 8.306 0.332
2020-05-13 953 2494.686 -15.081 -0.601
2020-05-14 947 2480.947 -13.739 -0.551
2020-05-15 945 2484.307 3.36 0.135
2020-05-16 938 2492.652 8.345 0.336
2020-05-17 938 2492.652 0 0
2020-05-18 947 2492.652 0 0
2020-05-19 937 2516.696 24.044 0.965
2020-05-20 949 2512.97 -3.726 -0.148
2020-05-21 952 2510.328 -2.642 -0.105
2020-05-23 939 2515.465 5.137 0.205
2020-05-24 939 2515.465 0 0
2020-05-25 943 2515.465 0 0
2020-05-26 952 2515.465 0 0
2020-05-27 953 2523.867 8.402 0.334
2020-05-28 946 2545.438 21.571 0.855
2020-05-29 951 2542.51 -2.928 -0.115
2020-05-30 950 2550.679 8.169 0.321
2020-05-31 950 2550.679 0 0
2020-06-01 959 2550.679 0 0
2020-06-02 967 2548.191 -2.488 -0.098
2020-06-03 980 2551.536 3.345 0.131
2020-06-04 984 2563.277 11.741 0.46
2020-06-05 989 2560.321 -2.956 -0.115
2020-06-06 987 2578.598 18.277 0.714
2020-06-07 987 2578.598 0 0
2020-06-08 988 2578.598 0 0
2020-06-09 991 2576.963 -1.635 -0.063
2020-06-10 998 2567.54 -9.423 -0.366
2020-06-11 988 2559.048 -8.492 -0.331
2020-06-12 992 2528.843 -30.205 -1.18
2020-06-13 988 2530.345 1.502 0.059
2020-06-14 988 2530.345 0 0
2020-06-15 982 2530.345 0 0
2020-06-16 981 2538.657 8.312 0.328
2020-06-17 983 2555.955 17.298 0.681
2020-06-18 987 2555.955 0 0
2020-06-19 992 2553.945 -2.01 -0.079
2020-06-20 990 2552.589 -1.356 -0.053
2020-06-21 990 2552.589 0 0
2020-06-22 992 2552.589 0 0
2020-06-23 995 2563.267 10.678 0.418
2020-06-24 995 2563.267 0 0
2020-06-25 996 2541.064 -22.203 -0.866
2020-06-26 980 2547.603 6.539 0.257
2020-06-27 982 2533.393 -14.21 -0.558
2020-06-28 982 2533.393 0 0
2020-06-29 986 2533.393 0 0
2020-06-30 989 2552.419 19.026 0.751
2020-07-01 987 2556.188 3.769 0.148
2020-07-07 1012 2556.188 0 0
2020-07-08 1009 2570.669 14.481 0.567
2020-07-09 1012 2572.998 2.329 0.091
2020-07-10 1007 2576.025 3.027 0.118
2020-07-11 1006 2583.699 7.674 0.298
2020-07-12 1006 2583.699 0 0
2020-07-13 1008 2583.699 0 0
2020-07-14 1013 2572.553 -11.146 -0.431
2020-07-15 1005 2592.23 19.677 0.765
2020-07-16 1000 2592.23 0 0
2020-07-17 995 2605 12.77 0.493
2020-07-18 995 2605 0 0
2020-07-20 993 2604.323 -0.677 -0.026
2020-07-21 997 2604.323 0 0
2020-07-22 1003 2613.655 9.332 0.358
2020-07-23 1000 2613.655 0 0
2020-07-24 937 2768.168 154.513 5.912
2020-07-25 936 2768.168 0 0
2020-07-26 933 2768.168 0 0
2020-07-27 937 2768.168 0 0
2020-07-28 940 2768.168 0 0
2020-07-29 945 2768.168 0 0
2020-07-30 949 2768.168 0 0
2020-07-31 949 2768.168 0 0
2020-08-04 958 2768.168 0 0
2020-08-05 964 2768.168 0 0
2020-08-06 962 2768.168 0 0
2020-08-07 958 2768.168 0 0
2020-08-08 959 2768.168 0 0
2020-08-09 959 2768.168 0 0
2020-08-10 954 2768.168 0 0
2020-08-12 951 2768.168 0 0
2020-08-13 950 2768.168 0 0
2020-08-14 954 2768.168 0 0
2020-08-15 952 2768.168 0 0
2020-08-16 952 2768.168 0 0
2020-08-17 954 2768.168 0 0
2020-08-18 961 2768.168 0 0
2020-08-19 956 2768.168 0 0
2020-08-20 954 2768.168 0 0
2020-08-21 959 2768.168 0 0
2020-08-22 958 2768.168 0 0
2020-08-23 958 2768.168 0 0
2020-08-24 963 2768.168 0 0
2020-08-25 968 2768.168 0 0
2020-08-26 966 2768.168 0 0
2020-08-27 972 2768.168 0 0
2020-08-28 974 2768.168 0 0
2020-08-29 977 2768.168 0 0
2020-08-30 977 2768.168 0 0
2020-08-31 976 2768.168 0 0
2020-09-01 982 2768.168 0 0
2020-09-02 987 2768.168 0 0
2020-09-03 983 2768.168 0 0
2020-09-04 979 2768.168 0 0
2020-09-05 979 2768.168 0 0
2020-09-06 979 2768.168 0 0
2020-09-07 975 2768.168 0 0
2020-09-09 967 2768.168 0 0
2020-09-10 965 2768.168 0 0
2020-09-11 971 2768.168 0 0
2020-09-12 970 2768.168 0 0
2020-09-13 970 2768.168 0 0
2020-09-14 974 2768.168 0 0
2020-09-15 983 2768.168 0 0
2020-09-16 983 2768.168 0 0
2020-09-17 981 2768.168 0 0
2020-09-18 983 2768.168 0 0
2020-09-19 983 2768.168 0 0
2020-09-21 979 2768.168 0 0
2020-09-22 979 2768.168 0 0
2020-09-23 970 2768.168 0 0
2020-09-24 963 2768.168 0 0
2020-09-25 961 2768.168 0 0
2020-09-26 961 2768.168 0 0
2020-09-27 961 2768.168 0 0
2020-09-28 967 2768.168 0 0
2020-09-29 968 2768.168 0 0
2020-09-30 972 2768.168 0 0
2020-10-01 974 2768.168 0 0
2020-10-03 975 2768.168 0 0
2020-10-04 975 2768.168 0 0
2020-10-05 977 2768.168 0 0
2020-10-06 979 2768.168 0 0
2020-10-07 979 2768.168 0 0
2020-10-08 984 2768.168 0 0
2020-10-09 989 2768.168 0 0
2020-10-10 992 2768.168 0 0
2020-10-11 993 2768.168 0 0
2020-10-12 993 2768.168 0 0
2020-10-13 992 2768.168 0 0
2020-10-14 992 2768.168 0 0
2020-10-16 985 2768.168 0 0
2020-10-17 985 2768.168 0 0
2020-10-18 985 2768.168 0 0
2020-10-19 982 2768.168 0 0
2020-10-20 987 2768.168 0 0
2020-10-21 985 2768.168 0 0
2020-10-22 990 2768.168 0 0
2020-10-23 985 2768.168 0 0
2020-10-24 987 2768.168 0 0
2020-10-25 986 2768.168 0 0
2020-10-26 980 2768.168 0 0
2020-10-27 982 2768.168 0 0
2020-10-28 972 2768.168 0 0
2020-10-29 967 2768.168 0 0
2020-10-30 967 2768.168 0 0
2020-10-31 967 2768.168 0 0
2020-11-01 967 2768.168 0 0
2020-11-02 971 2768.168 0 0
2020-11-03 976 2768.168 0 0
2020-11-04 988 2768.168 0 0
2020-11-05 996 2768.168 0 0
2020-11-06 1000 2768.168 0 0
2020-11-07 1005 2768.168 0 0
2020-11-08 1005 2768.168 0 0
2020-11-09 1015 2768.168 0 0
2020-11-10 1018 2768.168 0 0
2020-11-12 1014 2768.168 0 0
2020-11-13 1016 2768.168 0 0
2020-11-14 1012 2768.168 0 0
2020-11-15 1012 2768.168 0 0
2020-11-17 1021 2768.168 0 0
2020-11-18 1020 2768.168 0 0
2020-11-19 1021 2768.168 0 0
2020-11-20 1019 2768.168 0 0
2020-11-21 1021 2768.168 0 0
2020-11-22 1018 2768.168 0 0
2020-11-23 1028 2768.168 0 0
2020-11-24 1019 2768.168 0 0
2020-11-25 1021 2768.168 0 0
2020-11-26 1023 2768.168 0 0
2020-11-27 1025 2768.168 0 0
2020-11-28 1026 2768.168 0 0
2020-11-30 1023 2768.168 0 0
2020-12-01 1030 2768.168 0 0
2020-12-02 1030 2768.168 0 0
2020-12-03 1042 2768.168 0 0
2020-12-04 1044 2768.168 0 0
2020-12-05 1046 2768.168 0 0
2020-12-06 1046 2768.168 0 0
2020-12-07 1047 2768.168 0 0
2020-12-08 1059 2768.168 0 0
2020-12-09 1061 2768.168 0 0
2020-12-10 1062 2768.168 0 0
2020-12-11 1062 2768.168 0 0
2020-12-12 1063 2768.168 0 0
2020-12-13 1063 2768.168 0 0
2020-12-14 1060 2768.168 0 0
2020-12-15 1063 2768.168 0 0
2020-12-16 1064 2768.168 0 0
2020-12-17 1077 2768.168 0 0
2020-12-18 1081 2768.168 0 0
2020-12-19 1080 2768.168 0 0
2020-12-20 1081 2768.168 0 0
2020-12-21 1078 2768.168 0 0
2020-12-22 1073 2768.168 0 0
2020-12-23 1082 2768.168 0 0
2020-12-24 1081 2768.168 0 0
2020-12-25 1082 2768.168 0 0
2020-12-26 1082 2768.168 0 0
2020-12-27 1082 2768.168 0 0
2020-12-28 1076 2768.168 0 0
2020-12-29 1070 2768.168 0 0
2020-12-31 1083 2768.168 0 0
2021-01-01 1078 2768.168 0 0
2021-01-02 1078 2768.168 0 0
2021-01-03 1078 2768.168 0 0
2021-01-04 1083 2768.168 0 0
2021-01-05 1092 2768.168 0 0
2021-01-06 1088 2768.168 0 0
2021-01-07 1089 2768.168 0 0
2021-01-08 1095 2768.168 0 0
2021-01-09 1092 2768.168 0 0
2021-01-10 1092 2768.168 0 0
2021-01-11 1089 2768.168 0 0
2021-01-12 1091 2768.168 0 0
2021-01-13 1089 2768.168 0 0
2021-01-14 1096 2768.168 0 0
2021-01-15 1095 2768.168 0 0
2021-01-16 1090 2768.168 0 0
2021-01-17 1090 2768.168 0 0
2021-01-18 1100 2768.168 0 0
2021-01-19 1103 2768.168 0 0
2021-01-20 1105 2768.168 0 0
2021-01-21 1109 2768.168 0 0
2021-01-22 1104 2768.168 0 0
2021-01-23 1103 2768.168 0 0
2021-01-24 1103 2768.168 0 0
2021-01-25 1100 2768.168 0 0
2021-01-26 1099 2768.168 0 0
2021-01-27 1090 2768.168 0 0
2021-01-28 1084 2768.168 0 0
2021-01-29 1077 2768.168 0 0
2021-01-30 1078 2768.168 0 0
2021-01-31 1077 2768.168 0 0
2021-02-01 1088 2768.168 0 0
2021-02-02 1092 2768.168 0 0
2021-02-03 1096 2768.168 0 0
2021-02-04 1099 2768.168 0 0
2021-02-05 1098 2768.168 0 0
2021-02-06 1098 2768.168 0 0
2021-02-07 1098 2768.168 0 0
2021-02-08 1099 2768.168 0 0
2021-02-09 1109 2768.168 0 0
2021-02-10 1120 2768.168 0 0
2021-02-11 1123 2768.168 0 0
2021-02-12 1121 2768.168 0 0
2021-02-13 1121 2768.168 0 0
2021-02-14 1121 2768.168 0 0
2021-02-15 1124 2768.168 0 0
2021-02-16 1131 2768.168 0 0
2021-02-17 1123 2768.168 0 0
2021-02-18 1117 2768.168 0 0
2021-02-19 1116 2768.168 0 0
2021-02-20 1120 2768.168 0 0
2021-02-21 1121 2768.168 0 0
2021-02-22 1110 2768.168 0 0
2021-02-23 1109 2768.168 0 0
2021-02-24 1107 2768.168 0 0
2021-02-25 1101 2768.168 0 0
2021-02-26 1098 2768.168 0 0
2021-02-27 1095 2768.168 0 0
2021-02-28 1097 2768.168 0 0
2021-03-01 1106 2768.168 0 0
2021-03-02 1107 2768.168 0 0
2021-03-03 1105 2768.168 0 0
2021-03-04 1100 2782.378 14.21 0.513
2021-03-05 1096 2782.378 0 0
2021-03-06 1096 2782.378 0 0
2021-03-07 1101 2782.378 0 0
2021-03-08 1089 2782.378 0 0
2021-03-09 1085 2782.378 0 0
2021-03-11 1109 2782.378 0 0
2021-03-12 1119 2782.378 0 0
2021-03-13 1118 2782.378 0 0
2021-03-14 1119 2782.378 0 0
2021-03-15 1113 2782.378 0 0
2021-03-16 1110 2782.378 0 0
2021-03-18 1104 2782.378 0 0
2021-03-19 1104 2782.378 0 0
2021-03-20 1100 2782.378 0 0
2021-03-21 1100 2782.378 0 0
2021-03-22 1102 2782.378 0 0
2021-03-23 1109 2782.378 0 0
2021-03-24 1096 2782.378 0 0
2021-03-25 1095 2782.378 0 0
2021-03-26 1102 2782.378 0 0
2021-03-27 1100 2782.378 0 0
2021-03-28 1100 2782.378 0 0
2021-03-29 1097 2782.378 0 0
2021-03-30 1096 2782.378 0 0
2021-03-31 1093 2782.378 0 0
2021-04-01 1101 2782.378 0 0
2021-04-02 1100 2782.378 0 0
2021-04-03 1100 2782.378 0 0
2021-04-04 1100 2782.378 0 0
2021-04-05 1104 2782.378 0 0
2021-04-06 1108 2782.378 0 0
2021-04-07 1109 2782.378 0 0
2021-04-08 1111 2782.378 0 0
2021-04-09 1155 2782.378 0 0
2021-04-10 1153 2782.378 0 0
2021-04-11 1153 2782.378 0 0
2021-04-12 1147 2782.378 0 0
2021-04-13 1146 2782.378 0 0
2021-04-14 1154 2782.378 0 0
2021-04-15 1166 2782.378 0 0
2021-04-16 1170 2782.378 0 0
2021-04-17 1171 2782.378 0 0
2021-04-18 1171 2782.378 0 0
2021-04-19 1172 2782.378 0 0
2021-04-20 1169 2782.378 0 0
2021-04-21 1174 2782.378 0 0
2021-04-22 1170 2782.378 0 0
2021-04-23 1179 2782.378 0 0
2021-04-24 1179 2782.378 0 0
2021-04-25 1179 2782.378 0 0
2021-04-26 1177 2782.378 0 0
2021-04-27 1181 2782.378 0 0
2021-04-28 1182 2782.378 0 0
2021-04-29 1181 2782.378 0 0
2021-04-30 1181 2782.378 0 0
2021-05-01 1179 2776.818 -5.56 -0.2
2021-05-02 1178 2776.818 0 0
2021-05-03 1179 2776.818 0 0
2021-05-04 1171 2792.506 15.688 0.565
2021-05-05 1172 2787.981 -4.525 -0.162
2021-05-06 1170 2785.517 -2.464 -0.088
2021-05-07 1166 2792.575 7.058 0.253
2021-05-08 1169 2795.819 3.244 0.116
2021-05-09 1170 2795.819 0 0
2021-05-10 1164 2795.819 0 0
2021-05-11 1169 2788.799 -7.02 -0.251
2021-05-12 1169 2772.54 -16.259 -0.583
2021-05-13 1174 2742.387 -30.153 -1.088
2021-05-14 1177 2761.93 19.543 0.713
2021-05-15 1168 2780.41 18.48 0.669
2021-05-16 1168 2780.41 0 0
2021-05-17 1176 2780.41 0 0
2021-05-18 1174 2780.41 0 0
2021-05-19 1176 2770.802 -9.608 -0.346
2021-05-20 1184 2766.413 -4.389 -0.158
2021-05-21 1177 2774.798 8.385 0.303
2021-05-22 1175 2775.89 1.092 0.039
2021-05-23 1175 2775.89 0 0
2021-05-24 1183 2775.89 0 0
2021-05-25 1184 2775.89 0 0
2021-05-26 1189 2777.51 1.62 0.058
2021-05-27 1193 2787.142 9.632 0.347
2021-05-28 1187 2791.393 4.251 0.153
2021-05-29 1189 2783.897 -7.496 -0.269
2021-05-30 1189 2783.897 0 0
2021-05-31 1192 2783.897 0 0
2021-06-01 1193 2783.897 0 0
2021-06-02 1191 2790.384 6.487 0.233
2021-06-03 1187 2792.226 1.842 0.066
2021-06-04 1194 2785.813 -6.413 -0.23
2021-06-05 1194 2792.071 6.258 0.225
2021-06-06 1194 2792.071 0 0
2021-06-07 1196 2792.071 0 0
2021-06-08 1195 2788.524 -3.547 -0.127
2021-06-09 1192 2796.399 7.875 0.282
2021-06-10 1206 2785.681 -10.718 -0.383
2021-06-11 1205 2788.343 2.662 0.096
2021-06-12 1200 2796.988 8.645 0.31
2021-06-13 1200 2796.988 0 0
2021-06-14 1200 2796.988 0 0
2021-06-16 1191 2790.633 -6.355 -0.227
2021-06-17 1195 2785.011 -5.622 -0.201
2021-06-18 1191 2784.689 -0.322 -0.012
2021-06-19 1191 2784.689 0 0
2021-06-20 1190 2775.962 -8.727 -0.313
2021-06-21 1195 2775.962 0 0
2021-06-22 1196 2794.733 18.771 0.676
2021-06-23 1177 2809.059 14.326 0.513
2021-06-24 1188 2811.933 2.874 0.102
2021-06-25 1183 2815.415 3.482 0.124
2021-06-26 1184 2824.022 8.607 0.306
2021-06-27 1184 2824.022 0 0
2021-06-28 1190 2824.022 0 0
2021-06-29 1189 2828.193 4.171 0.148
2021-06-30 1182 2831.847 3.654 0.129
2021-07-01 1176 2831.093 -0.754 -0.027
2021-07-02 1174 2838.66 7.567 0.267
2021-07-03 1168 2846.983 8.323 0.293
2021-07-04 1168 2846.983 0 0
2021-07-05 1167 2846.983 0 0
2021-07-06 1164 2846.983 0 0
2021-07-07 1173 2840.166 -6.817 -0.239
2021-07-08 1167 2846.608 6.442 0.227
2021-07-09 1165 2845.146 -1.462 -0.051
2021-07-10 1161 2860.986 15.84 0.557
2021-07-11 1162 2860.986 0 0
2021-07-12 1172 2860.986 0 0
2021-07-13 1162 2863.141 2.155 0.075
2021-07-14 1161 2854.599 -8.542 -0.298
2021-07-15 1161 2856.554 1.955 0.068
2021-07-16 1156 2853.375 -3.179 -0.111
2021-07-17 1159 2846.683 -6.692 -0.235
2021-07-18 1159 2846.683 0 0
2021-07-19 1155 2846.683 0 0
2021-07-20 1159 2842.916 -3.767 -0.132
2021-07-21 1157 2865.301 22.385 0.787
2021-07-22 1151 2871.867 6.566 0.229
2021-07-23 1149 2871.628 -0.239 -0.008
2021-07-24 1142 2886.459 14.831 0.516
2021-07-25 1142 2886.459 0 0
2021-07-26 1135 2886.459 0 0
2021-07-27 1126 2885.149 -1.31 -0.045
2021-07-28 1122 2880.617 -4.532 -0.157
2021-07-29 1139 2876.646 -3.971 -0.138
2021-07-30 1133 2884.812 8.166 0.284
2021-07-31 1134 2885.877 1.065 0.037
2021-08-01 1134 2885.877 0 0
2021-08-02 1138 2885.877 0 0
2021-08-03 1148 2881.923 -3.954 -0.137
2021-08-04 1136 2896.89 14.967 0.519
2021-08-05 1144 2882.364 -14.526 -0.501
2021-08-06 1142 2888.797 6.433 0.223
2021-08-07 1136 2885.897 -2.9 -0.1
2021-08-08 1136 2885.897 0 0
2021-08-09 1135 2885.897 0 0
2021-08-10 1138 2889.84 3.943 0.137
2021-08-11 1132 2906.935 17.095 0.592
2021-08-13 1137 2900.552 -6.383 -0.22
2021-08-14 1143 2893.11 -7.442 -0.257
2021-08-15 1142 2893.11 0 0
2021-08-16 1140 2893.11 0 0
2021-08-17 1135 2893.11 0 0
2021-08-18 1141 2869.623 -23.487 -0.812
2021-08-19 1149 2857.332 -12.291 -0.428
2021-08-20 1142 2852.644 -4.688 -0.164
2021-08-21 1136 2872.025 19.381 0.679
2021-08-22 1136 2872.025 0 0
2021-08-23 1139 2872.025 0 0
2021-08-24 1155 2872.857 0.832 0.029
2021-08-25 1155 2875.726 2.869 0.1
2021-08-26 1144 2886.975 11.249 0.391
2021-08-27 1168 2853.475 -33.5 -1.16
2021-08-28 1210 2785.916 -67.559 -2.368
2021-08-29 1211 2785.916 0 0
2021-08-30 1215 2785.916 0 0
2021-08-31 1228 2776.733 -9.183 -0.33
2021-09-01 1235 2771.912 -4.821 -0.174
2021-09-02 1232 2778.638 6.726 0.243
2021-09-03 1234 2771.177 -7.461 -0.269
2021-09-04 1234 2772.916 1.739 0.063
2021-09-05 1235 2772.916 0 0
2021-09-06 1241 2772.916 0 0
2021-09-07 1239 2772.916 0 0
2021-09-08 1235 2762.525 -10.391 -0.375
2021-09-09 1230 2768.155 5.63 0.204
2021-09-10 1231 2774.826 6.671 0.241
2021-09-11 1237 2769.644 -5.182 -0.187
2021-09-12 1237 2769.644 0 0
2021-09-13 1233 2769.644 0 0
2021-09-14 1232 2765.404 -4.24 -0.153
2021-09-15 1237 2764.372 -1.032 -0.037
2021-09-16 1216 2775.691 11.319 0.409
2021-09-17 1203 2791.598 15.907 0.573
2021-09-18 1205 2786.078 -5.52 -0.198
2021-09-19 1203 2786.078 0 0
2021-09-20 1198 2786.078 0 0
2021-09-21 1211 2770.838 -15.24 -0.547
2021-09-22 1209 2770.838 0 0
2021-09-23 1212 2790.171 19.333 0.698
2021-09-24 1210 2795.742 5.571 0.2
2021-09-25 1206 2796.838 1.096 0.039
2021-09-26 1206 2796.838 0 0
2021-09-27 1199 2796.838 0 0
2021-09-28 1192 2798.483 1.645 0.059
2021-09-29 1193 2779.238 -19.245 -0.688
2021-09-30 1191 2789.924 10.686 0.384
2021-10-01 1209 2749.916 -40.008 -1.434
2021-10-02 1216 2747.082 -2.834 -0.103
2021-10-03 1216 2747.082 0 0
2021-10-04 1210 2747.082 0 0
2021-10-05 1226 2735.578 -11.504 -0.419
2021-10-06 1222 2738.499 2.921 0.107
2021-10-07 1228 2737.295 -1.204 -0.044
2021-10-08 1221 2750.582 13.287 0.485
2021-10-09 1225 2746.248 -4.334 -0.158
2021-10-10 1225 2746.248 0 0
2021-10-11 1220 2746.248 0 0
2021-10-12 1218 2741.26 -4.988 -0.182
2021-10-13 1221 2747.505 6.245 0.228
2021-10-14 1220 2757.97 10.465 0.381
2021-10-15 1221 2775.753 17.783 0.645
2021-10-16 1218 2782.696 6.943 0.25
2021-10-17 1217 2782.696 0 0
2021-10-18 1218 2782.696 0 0
2021-10-19 1208 2802.227 19.531 0.702
2021-10-20 1214 2796.296 -5.931 -0.212
2021-10-21 1216 2796.658 0.362 0.013
2021-10-22 1200 2819.888 23.23 0.831
2021-10-23 1200 2821.724 1.836 0.065
2021-10-25 1198 2821.724 0 0
2021-10-26 1196 2826.789 5.065 0.18
2021-10-27 1201 2813.321 -13.468 -0.476
2021-10-28 1205 2803.06 -10.261 -0.365
2021-10-29 1208 2803.194 0.134 0.005
2021-10-30 1203 2808.574 5.38 0.192
2021-10-31 1203 2808.574 0 0
2021-11-01 1202 2808.574 0 0
2021-11-02 1197 2812.819 4.245 0.151
2021-11-03 1192 2817.268 4.449 0.158
2021-11-04 1194 2817.268 0 0
2021-11-05 1191 2834.555 17.287 0.614
2021-11-06 1192 2834.001 -0.554 -0.02
2021-11-07 1192 2834.001 0 0
2021-11-08 1191 2834.001 0 0
2021-11-09 1201 2833.572 -0.429 -0.015
2021-11-10 1198 2833.572 0 0
2021-11-11 1199 2830.73 -2.842 -0.1
2021-11-12 1196 2836.088 5.358 0.189
2021-11-13 1192 2845.975 9.887 0.349
2021-11-14 1192 2845.975 0 0
2021-11-15 1189 2845.975 0 0
2021-11-16 1192 2853.018 7.043 0.247
2021-11-17 1187 2861.08 8.062 0.283
2021-11-18 1196 2827.511 -33.569 -1.173
2021-11-19 1195 2831.031 3.52 0.124
2021-11-20 1198 2823.857 -7.174 -0.253
2021-11-21 1198 2823.857 0 0
2021-11-22 1197 2823.857 0 0
2021-11-23 1182 2821.636 -2.221 -0.079
2021-11-24 1183 2820.857 -0.779 -0.028
2021-11-25 1188 2817.48 -3.377 -0.12
2021-11-26 1175 2817.48 0 0
2021-11-27 1184 2803.91 -13.57 -0.482
2021-11-28 1184 2803.91 0 0
2021-11-29 1182 2803.91 0 0
2021-11-30 1172 2806.456 2.546 0.091
2021-12-01 1185 2784.296 -22.16 -0.79
2021-12-02 1193 2764.608 -19.688 -0.707
2021-12-03 1177 2786.294 21.686 0.784
2021-12-04 1180 2778.514 -7.78 -0.279
2021-12-05 1180 2778.514 0 0
2021-12-06 1175 2778.514 0 0
2021-12-07 1187 2782.944 4.43 0.159
2021-12-08 1184 2804.937 21.993 0.79
2021-12-09 1189 2796.044 -8.893 -0.317
2021-12-10 1194 2787.55 -8.494 -0.304
2021-12-11 1189 2795.736 8.186 0.294
2021-12-12 1189 2795.736 0 0
2021-12-13 1187 2795.736 0 0
2021-12-14 1189 2771.867 -23.869 -0.854
2021-12-15 1190 2766.268 -5.599 -0.202
2021-12-16 1179 2775.261 8.993 0.325
2021-12-17 1199 2745.201 -30.06 -1.083
2021-12-18 1196 2745.564 0.363 0.013
2021-12-19 1197 2745.564 0 0
2021-12-20 1180 2745.564 0 0
2021-12-21 1200 2722.893 -22.671 -0.826
2021-12-22 1202 2739.863 16.97 0.623
2021-12-23 1209 2742.468 2.605 0.095
2021-12-24 1208 2742.468 0 0
2021-12-25 1209 2747.232 4.764 0.174
2021-12-26 1209 2747.232 0 0
2021-12-27 1205 2747.232 0 0
2021-12-28 1202 2759.139 11.907 0.433
2021-12-29 1199 2759.29 0.151 0.005
2021-12-30 1202 2768.203 8.913 0.323
2021-12-31 1198 2774.797 6.594 0.238
2022-01-02 1197 2778.38 3.583 0.129
2022-01-03 1199 2778.38 0 0
2022-01-04 1199 2778.38 0 0
2022-01-05 1189 2774.867 -3.513 -0.126
2022-01-06 1199 2744.057 -30.81 -1.11
2022-01-07 1187 2753.245 9.188 0.335
2022-01-08 1203 2740.219 -13.026 -0.473
2022-01-09 1203 2740.219 0 0
2022-01-10 1193 2740.219 0 0
2022-01-11 1199 2728.652 -11.567 -0.422
2022-01-12 1213 2730.106 1.454 0.053
2022-01-13 1211 2727.091 -3.015 -0.11
2022-01-14 1215 2724.191 -2.9 -0.106
2022-01-15 1213 2706.409 -17.782 -0.653
2022-01-16 1221 2706.409 0 0
2022-01-17 1222 2706.409 0 0
2022-01-18 1225 2706.409 0 0
2022-01-19 1226 2695.095 -11.314 -0.418
2022-01-20 1206 2691.657 -3.438 -0.128
2022-01-22 1221 2660.331 -31.326 -1.164
2022-01-23 1221 2660.331 0 0
2022-01-24 1213 2660.331 0 0
2022-01-25 1187 2693.384 33.053 1.242
2022-01-26 1195 2672.453 -20.931 -0.777
2022-01-27 1208 2652.433 -20.02 -0.749
2022-01-28 1201 2649.632 -2.801 -0.106
2022-01-29 1193 2671.628 21.996 0.83
2022-01-30 1193 2671.628 0 0
2022-01-31 1206 2671.628 0 0
2022-02-01 1204 2691.567 19.939 0.746
2022-02-02 1204 2699.449 7.882 0.293
2022-02-03 1197 2697.009 -2.44 -0.09
2022-02-04 1222 2675.804 -21.205 -0.786
2022-02-05 1223 2671.43 -4.374 -0.163
2022-02-06 1223 2671.43 0 0
2022-02-07 1224 2671.43 0 0
2022-02-08 1231 2664.077 -7.353 -0.275
2022-02-09 1237 2677.605 13.528 0.508
2022-02-10 1220 2693.225 15.62 0.583
2022-02-11 1222 2678.584 -14.641 -0.544
2022-02-12 1217 2666.335 -12.249 -0.457
2022-02-13 1218 2666.335 0 0
2022-02-14 1208 2666.335 0 0
2022-02-15 1222 2659.581 -6.754 -0.253
2022-02-16 1226 2674.32 14.739 0.554
2022-02-17 1220 2670.826 -3.494 -0.131
2022-02-18 1225 2654.757 -16.069 -0.602
2022-02-19 1223 2654.076 -0.681 -0.026
2022-02-20 1223 2654.076 0 0
2022-02-21 1216 2654.076 0 0
2022-02-22 1213 2654.076 0 0
2022-02-23 1221 2618.584 -35.492 -1.337
2022-02-24 1228 2595.641 -22.943 -0.876
2022-02-25 1224 2614.701 19.06 0.734
2022-02-26 1215 2643.737 29.036 1.11
2022-02-27 1216 2643.737 0 0
2022-02-28 1210 2643.737 0 0
2022-03-01 1200 2646.115 2.378 0.09
2022-03-02 1192 2657.702 11.587 0.438
2022-03-03 1183 2681.671 23.969 0.902
2022-03-04 1174 2673.472 -8.199 -0.306
2022-03-05 1165 2662.793 -10.679 -0.399
2022-03-06 1166 2662.793 0 0
2022-03-07 1150 2662.793 0 0
2022-03-08 1146 2632.47 -30.323 -1.139
2022-03-09 1157 2632.606 0.136 0.005
2022-03-10 1158 2658.991 26.385 1.002
2022-03-11 1155 2656.019 -2.972 -0.112
2022-03-12 1160 2640.406 -15.613 -0.588
2022-03-13 1160 2640.406 0 0
2022-03-14 1150 2640.406 0 0
2022-03-15 1149 2638.837 -1.569 -0.059
2022-03-16 1156 2665.019 26.182 0.992
2022-03-17 1166 2681.538 16.519 0.62
2022-03-18 1165 2694.544 13.006 0.485
2022-03-19 1153 2704.525 9.981 0.37
2022-03-20 1153 2704.525 0 0
2022-03-21 1153 2704.525 0 0
2022-03-22 1166 2691.106 -13.419 -0.496
2022-03-23 1161 2695.819 4.713 0.175
2022-03-24 1167 2683.134 -12.685 -0.471
2022-03-26 1166 2685.517 2.383 0.089
2022-03-27 1166 2685.517 0 0
2022-03-28 1160 2685.517 0 0
2022-03-29 1162 2686.708 1.191 0.044
2022-03-30 1160 2710.977 24.269 0.903
2022-04-01 1170 2691.13 -19.847 -0.732
2022-04-02 1184 2653.93 -37.2 -1.382
2022-04-03 1184 2653.93 0 0
2022-04-05 1212 2672.399 18.469 0.696
2022-04-06 1213 2668.199 -4.2 -0.157
2022-04-07 1204 2664.073 -4.126 -0.155
2022-04-08 1189 2688.7 24.627 0.924
2022-04-09 1185 2702.032 13.332 0.496
2022-04-10 1185 2702.032 0 0
2022-04-11 1175 2702.032 0 0
2022-04-12 1178 2695.048 -6.984 -0.258
2022-04-13 1178 2689.696 -5.352 -0.199
2022-04-14 1174 2699.36 9.664 0.359
2022-04-15 1176 2693.045 -6.315 -0.234
2022-04-16 1176 2693.045 0 0
2022-04-17 1176 2693.045 0 0
2022-04-18 1173 2693.045 0 0
2022-04-19 1176 2690.706 -2.339 -0.087
2022-04-20 1166 2716.875 26.169 0.973
2022-04-21 1154 2719.542 2.667 0.098
2022-04-22 1156 2704.183 -15.359 -0.565
2022-04-23 1168 2679.944 -24.239 -0.896
2022-04-24 1168 2679.944 0 0
2022-04-25 1148 2679.944 0 0
2022-04-26 1134 2690.218 10.274 0.383
2022-04-27 1145 2669.916 -20.302 -0.755
2022-04-28 1148 2661.172 -8.744 -0.328
2022-04-29 1146 2656.261 -4.911 -0.185
2022-04-30 1161 2627.778 -28.483 -1.072
