2020-01-19 1014 2572.942
2020-02-07 1008 2561.974
2020-02-15 1011 2573.528
2020-02-16 1011 2573.528
2020-02-17 1011 2569.812
2020-02-18 1012 2569.812
2020-02-19 1005 2581.892
2020-02-20 1004 2584.635
2020-02-21 1002 2592.537
2020-02-22 1004 2584.012
2020-02-23 1005 2584.012
2020-02-24 997 2584.012
2020-02-25 1000 2558.747
2020-02-26 995 2533.54
2020-02-27 983 2525.531
2020-02-28 980 2493.031
2020-02-29 985 2473.835
2020-03-01 988 2473.835
2020-03-02 996 2473.835
2020-03-03 983 2519.782
2020-03-04 989 2498.982
2020-03-05 973 2536.498
2020-03-06 971 2512.297
2020-03-07 971 2507.743
2020-03-08 972 2507.743
2020-03-09 953 2507.743
2020-03-10 951 2478.762
2020-03-11 926 2506.118
2020-03-12 911 2454.247
2020-03-13 937 2374.674
2020-03-14 919 2426.797
2020-03-15 919 2426.797
2020-03-16 896 2426.797
2020-03-17 917 2337.171
2020-03-18 889 2387.654
2020-03-19 895 2355.682
2020-03-20 898 2363.613
2020-03-21 915 2321.554
2020-03-22 915 2321.554
2020-03-23 905 2321.554
2020-03-24 902 2310.736
2020-03-25 912 2348.291
2020-03-26 930 2349.052
2020-03-27 935 2380.046
2020-03-28 931 2356.373
2020-03-29 931 2356.373
2020-03-30 931 2356.373
2020-03-31 928 2368.623
2020-04-01 934 2350.348
2020-04-02 932 2336.909
2020-04-03 928 2342.132
2020-04-04 933 2328.263
2020-04-05 933 2328.263
2020-04-06 933 2328.263
2020-04-07 926 2387.687
2020-04-08 944 2394.992
2020-04-09 949 2418.891
2020-04-10 956 2421.502
2020-04-11 956 2421.502
2020-04-12 956 2421.502
2020-04-13 948 2421.502
2020-04-14 956 2421.36
2020-04-15 942 2453.607
2020-04-16 945 2432.584
2020-04-17 942 2454.363
2020-04-18 949 2469.229
2020-04-19 949 2469.229
2020-04-20 947 2469.229
2020-04-21 943 2453.089
2020-04-23 947 2447.661
2020-04-24 946 2444.464
2020-04-25 936 2468.736
2020-04-26 936 2468.736
2020-04-27 941 2468.736
2020-04-28 949 2479.324
2020-04-29 957 2478.8
2020-04-30 955 2491.724
2020-05-01 959 2471.765
2020-05-02 961 2457.903
2020-05-03 961 2457.903
2020-05-04 952 2457.903
2020-05-05 947 2472.307
2020-05-06 946 2480.6
2020-05-07 942 2488.414
2020-05-08 952 2480.945
2020-05-09 948 2501.461
2020-05-10 948 2501.461
2020-05-11 946 2501.461
2020-05-12 944 2509.767
2020-05-13 953 2494.686
2020-05-14 947 2480.947
2020-05-15 945 2484.307
2020-05-16 938 2492.652
2020-05-17 938 2492.652
2020-05-18 947 2492.652
2020-05-19 937 2516.696
2020-05-20 949 2512.97
2020-05-21 952 2510.328
2020-05-22 942 2513.139
2020-05-23 939 2515.465
2020-05-24 939 2515.465
2020-05-25 943 2515.465
2020-05-26 952 2515.465
2020-05-27 953 2523.867
2020-05-28 946 2545.438
2020-05-29 951 2542.51
2020-05-30 950 2550.679
2020-05-31 950 2550.679
2020-06-01 959 2550.679
2020-06-02 967 2548.191
2020-06-03 980 2551.536
2020-06-04 984 2563.277
2020-06-05 989 2560.321
2020-06-06 987 2578.598
2020-06-07 987 2578.598
2020-06-08 988 2578.598
2020-06-09 991 2576.963
2020-06-10 998 2567.54
2020-06-11 988 2559.048
2020-06-12 992 2528.843
2020-06-13 988 2530.345
2020-06-14 988 2530.345
2020-06-15 982 2530.345
2020-06-16 981 2538.657
2020-06-17 983 2555.955
2020-06-18 987 2555.955
2020-06-19 992 2553.945
2020-06-20 990 2552.589
2020-06-21 990 2552.589
2020-06-22 992 2552.589
2020-06-23 995 2563.267
2020-06-24 995 2563.267
2020-06-25 996 2541.064
2020-06-26 980 2547.603
2020-06-27 982 2533.393
2020-06-28 982 2533.393
2020-06-29 986 2533.393
2020-06-30 989 2552.419
2020-07-01 987 2556.188
2020-07-07 1012 2556.188
2020-07-08 1009 2570.669
2020-07-09 1012 2572.998
2020-07-10 1007 2576.025
2020-07-11 1006 2583.699
2020-07-12 1006 2583.699
2020-07-13 1008 2583.699
2020-07-14 1013 2572.553
2020-07-15 1005 2592.23
2020-07-16 1000 2592.23
2020-07-17 995 2605
2020-07-18 995 2605
2020-07-20 993 2604.323
2020-07-21 997 2604.323
2020-07-22 1003 2613.655
2020-07-23 1000 2613.655
2020-07-24 937 2768.168
2020-07-25 936 2768.168
2020-07-26 933 2768.168
2020-07-27 937 2768.168
2020-07-28 940 2768.168
2020-07-29 945 2768.168
2020-07-30 949 2768.168
2020-07-31 949 2768.168
2020-08-04 958 2768.168
2020-08-05 964 2768.168
2020-08-06 962 2768.168
2020-08-07 958 2768.168
2020-08-08 959 2768.168
2020-08-09 959 2768.168
2020-08-10 954 2768.168
2020-08-12 951 2768.168
2020-08-13 950 2768.168
2020-08-14 954 2768.168
2020-08-15 952 2768.168
2020-08-16 952 2768.168
2020-08-17 954 2768.168
2020-08-18 961 2768.168
2020-08-19 956 2768.168
2020-08-20 954 2768.168
2020-08-21 959 2768.168
2020-08-22 958 2768.168
2020-08-23 958 2768.168
2020-08-24 963 2768.168
2020-08-25 968 2768.168
2020-08-26 966 2768.168
2020-08-27 972 2768.168
2020-08-28 974 2768.168
2020-08-29 977 2768.168
2020-08-30 977 2768.168
2020-08-31 976 2768.168
