2020-01-19 1911 1254.823
2020-02-07 1882 1252.501
2020-02-15 1887 1249.977
2020-02-16 1887 1249.977
2020-02-17 1890 1249.977
2020-02-18 1886 1249.977
2020-02-19 1891 1246.594
2020-02-20 1891 1246.594
2020-02-21 1884 1245.071
2020-02-22 1887 1245.071
2020-02-23 1885 1245.071
2020-02-24 1876 1245.071
2020-02-25 1863 1238.868
2020-02-26 1854 1240.945
2020-02-27 1845 1244.746
2020-02-28 1836 1246.223
2020-02-29 1832 1236.013
2020-03-01 1837 1236.013
2020-03-02 1843 1236.013
2020-03-03 1861 1226.623
2020-03-04 1878 1216.958
2020-03-05 1874 1218.163
2020-03-06 1925 1169.021
2020-03-07 1937 1161.81
2020-03-08 1934 1161.81
2020-03-09 1903 1161.81
2020-03-10 1899 1156.713
2020-03-11 1875 1156.713
2020-03-12 1833 1163.782
2020-03-13 1828 1154.687
2020-03-14 1826 1159.452
2020-03-15 1827 1159.452
2020-03-16 1796 1159.452
2020-03-17 1787 1153.841
2020-03-18 1763 1154.163
2020-03-19 1738 1154.045
2020-03-20 1760 1142.83
2020-03-21 1766 1139.715
2020-03-22 1766 1139.715
2020-03-23 1746 1139.715
2020-03-24 1760 1118.462
2020-03-25 1792 1129.091
2020-03-26 1815 1129.091
2020-03-27 1823 1140.359
2020-03-28 1814 1145.006
2020-03-29 1814 1145.006
2020-03-30 1814 1145.006
2020-03-31 1819 1133.272
2020-04-01 1822 1132.803
2020-04-02 1804 1132.803
2020-04-03 1810 1132.803
2020-04-04 1810 1125.089
2020-04-05 1810 1125.089
2020-04-06 1810 1125.089
2020-04-07 1837 1125.089
2020-04-08 1971 1133.122
2020-04-09 1992 1122.657
2020-04-10 1993 1123.282
2020-04-11 1993 1123.282
2020-04-12 1993 1123.282
2020-04-13 1994 1123.282
2020-04-14 2002 1123.54
2020-04-15 1995 1123.54
2020-04-16 1991 1121.151
2020-04-17 2007 1114.988
2020-04-18 1998 1122.123
2020-04-19 1998 1122.123
2020-04-20 2001 1122.123
2020-04-21 1987 1119.723
2020-04-23 1999 1117.569
2020-04-24 1984 1126.679
2020-04-25 1992 1120.895
2020-04-26 1992 1120.895
2020-04-27 1998 1120.895
2020-04-28 2000 1123.945
2020-04-29 2007 1124.83
2020-04-30 2008 1132.393
2020-05-01 1995 1141.194
2020-05-02 1993 1141.194
2020-05-03 1993 1141.194
2020-05-04 1983 1141.194
2020-05-05 1993 1131.803
2020-05-06 1995 1133.065
2020-05-07 2001 1131.14
2020-05-08 2006 1131.14
2020-05-09 2010 1134.284
2020-05-10 2010 1134.284
2020-05-11 2007 1134.284
2020-05-12 2006 1131.522
2020-05-13 2001 1134.847
2020-05-14 1991 1135.599
2020-05-15 1996 1134.059
2020-05-16 1995 1134.048
2020-05-17 1995 1134.048
2020-05-18 1998 1134.048
2020-05-19 2012 1128.848
2020-05-20 2016 1132.906
2020-05-21 2014 1130.543
2020-05-22 2003 1133.347
2020-05-23 2001 1128.273
2020-05-24 2001 1128.273
2020-05-25 2001 1128.273
2020-05-26 2017 1128.273
2020-05-27 2021 1132.672
2020-05-28 2018 1131.868
2020-05-29 2024 1131.279
2020-05-30 2023 1133.329
2020-05-31 2023 1133.329
2020-06-01 2035 1133.329
2020-06-02 2049 1134.397
2020-06-03 2053 1137.144
2020-06-04 2061 1135.524
2020-06-05 2068 1133.909
2020-06-06 2072 1133.816
2020-06-07 2072 1133.816
2020-06-08 2070 1133.816
2020-06-09 2071 1134.566
2020-06-10 2069 1133.347
2020-06-11 2063 1133.609
2020-06-12 2063 1130.71
2020-06-13 2057 1129.798
2020-06-14 2057 1129.798
2020-06-15 2055 1129.798
2020-06-16 2059 1127.189
2020-06-17 2070 1124.572
2020-06-18 2069 1124.572
2020-06-19 2067 1125.402
2020-06-20 2070 1124.7
2020-06-21 2070 1124.7
2020-06-22 2068 1124.7
2020-06-23 2065 1127.123
2020-06-24 2065 1127.123
2020-06-25 2063 1131.682
2020-06-26 2061 1132.635
2020-06-27 2057 1132.822
2020-06-28 2057 1132.822
2020-06-29 2051 1132.822
2020-06-30 2055 1133.816
