2019-11-07 1862 1256.648 0 0
2020-01-19 1911 1254.823 -1.825 -0.145
2020-02-07 1882 1252.501 -2.322 -0.185
2020-02-15 1887 1249.977 -2.524 -0.202
2020-02-16 1887 1249.977 0 0
2020-02-17 1890 1249.977 0 0
2020-02-18 1886 1249.977 0 0
2020-02-19 1891 1246.594 -3.383 -0.271
2020-02-20 1891 1246.594 0 0
2020-02-21 1884 1245.071 -1.523 -0.122
2020-02-22 1887 1245.071 0 0
2020-02-23 1885 1245.071 0 0
2020-02-24 1876 1245.071 0 0
2020-02-25 1863 1238.868 -6.203 -0.498
2020-02-26 1854 1240.945 2.077 0.168
2020-02-27 1845 1244.746 3.801 0.306
2020-02-28 1836 1246.223 1.477 0.119
2020-02-29 1832 1236.013 -10.21 -0.819
2020-03-01 1837 1236.013 0 0
2020-03-02 1843 1236.013 0 0
2020-03-03 1861 1226.623 -9.39 -0.76
2020-03-04 1878 1216.958 -9.665 -0.788
2020-03-05 1874 1218.163 1.205 0.099
2020-03-06 1925 1169.021 -49.142 -4.034
2020-03-07 1937 1161.81 -7.211 -0.617
2020-03-08 1934 1161.81 0 0
2020-03-09 1903 1161.81 0 0
2020-03-10 1899 1156.713 -5.097 -0.439
2020-03-11 1875 1156.713 0 0
2020-03-12 1833 1163.782 7.069 0.611
2020-03-13 1828 1154.687 -9.095 -0.782
2020-03-14 1826 1159.452 4.765 0.413
2020-03-15 1827 1159.452 0 0
2020-03-16 1796 1159.452 0 0
2020-03-17 1787 1153.841 -5.611 -0.484
2020-03-18 1763 1154.163 0.322 0.028
2020-03-19 1738 1154.045 -0.118 -0.01
2020-03-20 1760 1142.83 -11.215 -0.972
2020-03-21 1766 1139.715 -3.115 -0.273
2020-03-22 1766 1139.715 0 0
2020-03-23 1746 1139.715 0 0
2020-03-24 1760 1118.462 -21.253 -1.865
2020-03-25 1792 1129.091 10.629 0.95
2020-03-26 1815 1129.091 0 0
2020-03-27 1823 1140.359 11.268 0.998
2020-03-28 1814 1145.006 4.647 0.408
2020-03-29 1814 1145.006 0 0
2020-03-30 1814 1145.006 0 0
2020-03-31 1819 1133.272 -11.734 -1.025
2020-04-01 1822 1132.803 -0.469 -0.041
2020-04-02 1804 1132.803 0 0
2020-04-03 1810 1132.803 0 0
2020-04-04 1810 1125.089 -7.714 -0.681
2020-04-05 1810 1125.089 0 0
2020-04-06 1810 1125.089 0 0
2020-04-07 1837 1125.089 0 0
2020-04-08 1971 1133.122 8.033 0.714
2020-04-09 1992 1122.657 -10.465 -0.924
2020-04-10 1993 1123.282 0.625 0.056
2020-04-11 1993 1123.282 0 0
2020-04-12 1993 1123.282 0 0
2020-04-13 1994 1123.282 0 0
2020-04-14 2002 1123.54 0.258 0.023
2020-04-15 1995 1123.54 0 0
2020-04-16 1991 1121.151 -2.389 -0.213
2020-04-17 2007 1114.988 -6.163 -0.55
2020-04-18 1998 1122.123 7.135 0.64
2020-04-19 1998 1122.123 0 0
2020-04-20 2001 1122.123 0 0
2020-04-21 1987 1119.723 -2.4 -0.214
2020-04-23 1999 1117.569 -2.154 -0.192
2020-04-24 1984 1126.679 9.11 0.815
2020-04-25 1992 1120.895 -5.784 -0.513
2020-04-26 1992 1120.895 0 0
2020-04-27 1998 1120.895 0 0
2020-04-28 2000 1123.945 3.05 0.272
2020-04-29 2007 1124.83 0.885 0.079
2020-04-30 2008 1132.393 7.563 0.672
2020-05-01 1995 1141.194 8.801 0.777
2020-05-02 1993 1141.194 0 0
2020-05-03 1993 1141.194 0 0
2020-05-04 1983 1141.194 0 0
2020-05-05 1993 1131.803 -9.391 -0.823
2020-05-06 1995 1133.065 1.262 0.112
2020-05-07 2001 1131.14 -1.925 -0.17
2020-05-08 2006 1131.14 0 0
2020-05-09 2010 1134.284 3.144 0.278
2020-05-10 2010 1134.284 0 0
2020-05-11 2007 1134.284 0 0
2020-05-12 2006 1131.522 -2.762 -0.244
2020-05-13 2001 1134.847 3.325 0.294
2020-05-14 1991 1135.599 0.752 0.066
2020-05-15 1996 1134.059 -1.54 -0.136
2020-05-16 1995 1134.048 -0.011 -0.001
2020-05-17 1995 1134.048 0 0
2020-05-18 1998 1134.048 0 0
2020-05-19 2012 1128.848 -5.2 -0.459
2020-05-20 2016 1132.906 4.058 0.359
2020-05-21 2014 1130.543 -2.363 -0.209
2020-05-23 2001 1128.273 -2.27 -0.201
2020-05-24 2001 1128.273 0 0
2020-05-25 2001 1128.273 0 0
2020-05-26 2017 1128.273 0 0
2020-05-27 2021 1132.672 4.399 0.39
2020-05-28 2018 1131.868 -0.804 -0.071
2020-05-29 2024 1131.279 -0.589 -0.052
2020-05-30 2023 1133.329 2.05 0.181
2020-05-31 2023 1133.329 0 0
2020-06-01 2035 1133.329 0 0
2020-06-02 2049 1134.397 1.068 0.094
2020-06-03 2053 1137.144 2.747 0.242
2020-06-04 2061 1135.524 -1.62 -0.142
2020-06-05 2068 1133.909 -1.615 -0.142
2020-06-06 2072 1133.816 -0.093 -0.008
2020-06-07 2072 1133.816 0 0
2020-06-08 2070 1133.816 0 0
2020-06-09 2071 1134.566 0.75 0.066
2020-06-10 2069 1133.347 -1.219 -0.107
2020-06-11 2063 1133.609 0.262 0.023
2020-06-12 2063 1130.71 -2.899 -0.256
2020-06-13 2057 1129.798 -0.912 -0.081
2020-06-14 2057 1129.798 0 0
2020-06-15 2055 1129.798 0 0
2020-06-16 2059 1127.189 -2.609 -0.231
2020-06-17 2070 1124.572 -2.617 -0.232
2020-06-18 2069 1124.572 0 0
2020-06-19 2067 1125.402 0.83 0.074
2020-06-20 2070 1124.7 -0.702 -0.062
2020-06-21 2070 1124.7 0 0
2020-06-22 2068 1124.7 0 0
2020-06-23 2065 1127.123 2.423 0.215
2020-06-24 2065 1127.123 0 0
2020-06-25 2063 1131.682 4.559 0.404
2020-06-26 2061 1132.635 0.953 0.084
2020-06-27 2057 1132.822 0.187 0.017
2020-06-28 2057 1132.822 0 0
2020-06-29 2051 1132.822 0 0
2020-06-30 2055 1133.816 0.994 0.088
2020-07-01 2057 1135.017 1.201 0.106
2020-07-07 2077 1135.017 0 0
2020-07-08 2078 1143.669 8.652 0.762
2020-07-09 2080 1142.373 -1.296 -0.113
2020-07-10 2072 1142.669 0.296 0.026
2020-07-11 2078 1139.487 -3.182 -0.278
2020-07-12 2078 1139.487 0 0
2020-07-13 2085 1139.487 0 0
2020-07-14 2075 1139.639 0.152 0.013
2020-07-15 2077 1136.126 -3.513 -0.308
2020-07-16 2072 1136.126 0 0
2020-07-17 2069 1139.828 3.702 0.326
2020-07-18 2069 1139.828 0 0
2020-07-20 2070 1142.297 2.469 0.217
2020-07-21 2073 1142.297 0 0
2020-07-22 2075 1146.5 4.203 0.368
2020-07-23 2076 1146.365 -0.135 -0.012
2020-07-24 2069 1146.308 -0.057 -0.005
2020-07-25 2071 1145.159 -1.149 -0.1
2020-07-26 2068 1145.159 0 0
2020-07-27 2067 1145.159 0 0
2020-07-28 2068 1145.101 -0.058 -0.005
2020-07-29 2070 1144.968 -0.133 -0.012
2020-07-30 2074 1145.695 0.727 0.063
2020-07-31 2075 1145.695 0 0
2020-08-04 2074 1145.695 0 0
2020-08-05 2076 1141.993 -3.702 -0.323
2020-08-06 2087 1143.517 1.524 0.133
2020-08-07 2086 1143.631 0.114 0.01
2020-08-08 2079 1143.688 0.057 0.005
2020-08-09 2079 1143.688 0 0
2020-08-10 2083 1143.688 0 0
2020-08-12 2088 1143.688 0 0
2020-08-13 2088 1145.187 1.499 0.131
2020-08-14 2087 1145.006 -0.181 -0.016
2020-08-15 2087 1144.108 -0.898 -0.078
2020-08-16 2087 1144.108 0 0
2020-08-17 2090 1144.108 0 0
2020-08-18 2095 1144.366 0.258 0.023
2020-08-19 2094 1146.308 1.942 0.17
2020-08-20 2094 1145.256 -1.052 -0.092
2020-08-21 2094 1142.107 -3.149 -0.275
2020-08-22 2088 1144.977 2.87 0.251
2020-08-23 2088 1144.977 0 0
2020-08-24 2089 1144.977 0 0
2020-08-25 2084 1153.289 8.312 0.726
2020-08-26 2080 1153.056 -0.233 -0.02
2020-08-27 2079 1153.366 0.31 0.027
2020-08-28 2073 1161.013 7.647 0.663
2020-08-29 2074 1167.648 6.635 0.571
2020-08-30 2074 1167.648 0 0
2020-08-31 2069 1167.648 0 0
2020-09-01 2077 1164.256 -3.392 -0.29
2020-09-02 2067 1175.918 11.662 1.002
2020-09-03 2066 1173.482 -2.436 -0.207
2020-09-04 2069 1166.356 -7.126 -0.607
2020-09-05 2060 1171.797 5.441 0.466
2020-09-06 2060 1171.797 0 0
2020-09-07 2056 1171.797 0 0
2020-09-09 2055 1164.296 -7.501 -0.64
2020-09-10 2058 1165.206 0.91 0.078
2020-09-11 2061 1166.554 1.348 0.116
2020-09-12 2063 1165.404 -1.15 -0.099
2020-09-13 2063 1165.404 0 0
2020-09-14 2071 1165.404 0 0
2020-09-15 2070 1166.237 0.833 0.071
2020-09-16 2072 1163.603 -2.634 -0.226
2020-09-17 2071 1165.702 2.099 0.18
2020-09-18 2076 1163.545 -2.157 -0.185
2020-09-19 2071 1166.713 3.168 0.272
2020-09-21 2061 1166.713 0 0
2020-09-22 2055 1167.557 0.844 0.072
2020-09-23 2054 1164.573 -2.984 -0.256
2020-09-24 2044 1164.81 0.237 0.02
2020-09-25 2046 1159.667 -5.143 -0.442
2020-09-26 2041 1164.335 4.668 0.403
2020-09-27 2041 1164.335 0 0
2020-09-28 2050 1164.335 0 0
2020-09-29 2047 1161.356 -2.979 -0.256
2020-09-30 2052 1160.315 -1.041 -0.09
2020-10-01 2055 1161.534 1.219 0.105
2020-10-03 2043 1171.567 10.033 0.864
2020-10-04 2043 1171.567 0 0
2020-10-05 2046 1171.567 0 0
2020-10-06 2054 1169.3 -2.267 -0.194
2020-10-07 2054 1169.3 0 0
2020-10-08 2065 1168.782 -0.518 -0.044
2020-10-09 2063 1170.058 1.276 0.109
2020-10-10 2065 1171.618 1.56 0.133
2020-10-11 2067 1171.618 0 0
2020-10-12 2070 1171.618 0 0
2020-10-13 2074 1169.539 -2.079 -0.177
2020-10-14 2073 1168.224 -1.315 -0.112
2020-10-16 2073 1167.906 -0.318 -0.027
2020-10-17 2073 1167.906 0 0
2020-10-18 2073 1167.906 0 0
2020-10-19 2070 1168.383 0.477 0.041
2020-10-20 2069 1167.985 -0.398 -0.034
2020-10-21 2074 1166.237 -1.748 -0.15
2020-10-22 2077 1164.396 -1.841 -0.158
2020-10-23 2077 1165.325 0.929 0.08
2020-10-24 2077 1164.177 -1.148 -0.099
2020-10-25 2076 1164.177 0 0
2020-10-26 2074 1164.177 0 0
2020-10-27 2074 1160.394 -3.783 -0.325
2020-10-28 2072 1162.44 2.046 0.176
2020-10-29 2069 1160.022 -2.418 -0.208
2020-10-30 2064 1156.401 -3.621 -0.312
2020-10-31 2063 1156.401 0 0
2020-11-01 2063 1156.401 0 0
2020-11-02 2072 1156.401 0 0
2020-11-03 2077 1151.449 -4.952 -0.428
2020-11-04 2080 1151.777 0.328 0.028
2020-11-05 2093 1146.615 -5.162 -0.448
2020-11-06 2092 1151.855 5.24 0.457
2020-11-07 2091 1154.863 3.008 0.261
2020-11-08 2091 1154.863 0 0
2020-11-09 2109 1154.863 0 0
2020-11-10 2111 1155.67 0.807 0.07
2020-11-12 2114 1152.281 -3.389 -0.293
2020-11-13 2121 1148.074 -4.207 -0.365
2020-11-14 2111 1148.497 0.423 0.037
2020-11-15 2111 1148.497 0 0
2020-11-17 2125 1148.497 0 0
2020-11-18 2117 1150.965 2.468 0.215
2020-11-19 2115 1155.193 4.228 0.367
2020-11-20 2114 1153.871 -1.322 -0.114
2020-11-21 2115 1155.66 1.789 0.155
2020-11-22 2118 1155.66 0 0
2020-11-23 2120 1155.66 0 0
2020-11-24 2120 1156.42 0.76 0.066
2020-11-25 2120 1157.984 1.564 0.135
2020-11-26 2120 1159.491 1.507 0.13
2020-11-27 2128 1159.491 0 0
2020-11-28 2132 1157.201 -2.29 -0.198
2020-11-30 2130 1157.201 0 0
2020-12-01 2135 1157.201 0 0
2020-12-02 2130 1163.348 6.147 0.531
2020-12-03 2130 1161.102 -2.246 -0.193
2020-12-04 2144 1159.413 -1.689 -0.145
2020-12-05 2142 1161.259 1.846 0.159
2020-12-06 2142 1161.259 0 0
2020-12-07 2140 1161.259 0 0
2020-12-08 2141 1159.609 -1.65 -0.142
2020-12-09 2141 1165.048 5.439 0.469
2020-12-10 2140 1164.929 -0.119 -0.01
2020-12-11 2140 1163.447 -1.482 -0.127
2020-12-12 2141 1163.603 0.156 0.013
2020-12-13 2141 1163.603 0 0
2020-12-14 2142 1163.603 0 0
2020-12-15 2143 1164.969 1.366 0.117
2020-12-16 2142 1164.969 0 0
2020-12-17 2155 1164.573 -0.396 -0.034
2020-12-18 2158 1164.652 0.079 0.007
2020-12-19 2159 1164.95 0.298 0.026
2020-12-20 2159 1164.95 0 0
2020-12-21 2154 1164.95 0 0
2020-12-22 2149 1161.416 -3.534 -0.303
2020-12-23 2195 1160.473 -0.943 -0.081
2020-12-24 2199 1161.829 1.356 0.117
2020-12-25 2195 1165.127 3.298 0.284
2020-12-26 2195 1165.127 0 0
2020-12-27 2195 1165.127 0 0
2020-12-28 2193 1165.127 0 0
2020-12-29 2191 1165.92 0.793 0.068
2020-12-31 2197 1169.061 3.141 0.269
2021-01-01 2186 1172.861 3.8 0.325
2021-01-02 2186 1172.861 0 0
2021-01-03 2186 1172.861 0 0
2021-01-04 2187 1172.861 0 0
2021-01-05 2197 1173.645 0.784 0.067
2021-01-06 2201 1171.098 -2.547 -0.217
2021-01-07 2202 1172.16 1.062 0.091
2021-01-08 2212 1168.911 -3.249 -0.277
2021-01-09 2208 1169.958 1.047 0.09
2021-01-10 2208 1169.958 0 0
2021-01-11 2205 1169.958 0 0
2021-01-12 2345 1017.005 -152.953 -13.073
2021-01-13 2342 1018.949 1.944 0.191
2021-01-14 2344 1020.324 1.375 0.135
2021-01-15 2343 1021.817 1.493 0.146
2021-01-16 2343 1021.477 -0.34 -0.033
2021-01-17 2343 1021.477 0 0
2021-01-18 2342 1021.477 0 0
2021-01-19 2340 1021.477 0 0
2021-01-20 2342 1020.028 -1.449 -0.142
2021-01-21 2344 1021.967 1.939 0.19
2021-01-22 2334 1022.508 0.541 0.053
2021-01-23 2334 1022.824 0.316 0.031
2021-01-24 2334 1022.824 0 0
2021-01-25 2335 1022.824 0 0
2021-01-26 2332 1023.279 0.455 0.044
2021-01-27 2336 1023.279 0 0
2021-01-28 2331 1023.525 0.246 0.024
2021-01-29 2333 1021.774 -1.751 -0.171
2021-01-30 2334 1022.999 1.225 0.12
2021-01-31 2334 1022.999 0 0
2021-02-01 2332 1022.999 0 0
2021-02-02 2331 1021.948 -1.051 -0.103
2021-02-03 2334 1022.946 0.998 0.098
2021-02-04 2335 1022.999 0.053 0.005
2021-02-05 2334 1022.981 -0.018 -0.002
2021-02-06 2336 1023.438 0.457 0.045
2021-02-07 2337 1023.438 0 0
2021-02-08 2339 1023.438 0 0
2021-02-09 2346 1022.929 -0.509 -0.05
2021-02-10 2346 1024.157 1.228 0.12
2021-02-11 2350 1024.649 0.492 0.048
2021-02-12 2347 1024.438 -0.211 -0.021
2021-02-13 2347 1025.952 1.514 0.148
2021-02-14 2347 1025.952 0 0
2021-02-15 2347 1025.952 0 0
2021-02-16 2350 1025.952 0 0
2021-02-17 2352 1026.631 0.679 0.066
2021-02-18 2351 1025.9 -0.731 -0.071
2021-02-19 2350 1027.346 1.446 0.141
2021-02-20 2351 1027.346 0 0
2021-02-21 2353 1027.346 0 0
2021-02-22 2354 1027.346 0 0
2021-02-23 2355 1029.615 2.269 0.221
2021-02-24 2354 1030.076 0.461 0.045
2021-02-25 2354 1031.678 1.602 0.156
2021-02-26 2348 1030.556 -1.122 -0.109
2021-02-27 2355 1015.69 -14.866 -1.443
2021-02-28 2357 1015.69 0 0
2021-03-01 2353 1015.69 0 0
2021-03-02 2353 1014.776 -0.914 -0.09
2021-03-03 2357 1017.317 2.541 0.25
2021-03-04 2349 1026.41 9.093 0.894
2021-03-05 2346 1024.684 -1.726 -0.168
2021-03-06 2355 1022.263 -2.421 -0.236
2021-03-07 2351 1022.263 0 0
2021-03-08 2344 1022.263 0 0
2021-03-09 2343 1018.949 -3.314 -0.324
2021-03-11 2332 1023.612 4.663 0.458
2021-03-12 2341 1023.612 0 0
2021-03-13 2343 1025.299 1.687 0.165
2021-03-14 2344 1025.299 0 0
2021-03-15 2338 1025.299 0 0
2021-03-16 2341 1029.863 4.564 0.445
2021-03-18 2339 1028.868 -0.995 -0.097
2021-03-19 2339 1028.868 0 0
2021-03-20 2335 1029.17 0.302 0.029
2021-03-21 2335 1029.17 0 0
2021-03-22 2336 1029.17 0 0
2021-03-23 2334 1031.303 2.133 0.207
2021-03-24 2330 1030.608 -0.695 -0.067
2021-03-25 2325 1028.55 -2.058 -0.2
2021-03-26 2332 1028.55 0 0
2021-03-27 2330 1029.294 0.744 0.072
2021-03-28 2330 1029.294 0 0
2021-03-29 2328 1029.294 0 0
2021-03-30 2327 1029.294 0 0
2021-03-31 2339 1017.091 -12.203 -1.186
2021-04-01 2340 1020.848 3.757 0.369
2021-04-02 2340 1020.848 0 0
2021-04-03 2340 1020.848 0 0
2021-04-04 2341 1020.848 0 0
2021-04-05 2341 1020.848 0 0
2021-04-06 2344 1018.15 -2.698 -0.264
2021-04-07 2346 1016.555 -1.595 -0.157
2021-04-08 2344 1016.555 0 0
2021-04-09 2723 1001.021 -15.534 -1.528
2021-04-17 2715 1003.907 2.886 0.288
2021-04-18 2715 1003.907 0 0
2021-04-19 2712 1003.907 0 0
2021-04-29 2722 1003.671 -0.236 -0.024
2021-04-30 2712 1008.077 4.406 0.439
2021-05-01 2713 1007.634 -0.443 -0.044
2021-05-02 2712 1007.634 0 0
2021-05-03 2709 1007.634 0 0
2021-05-04 2705 1009.764 2.13 0.211
2021-05-05 2705 1010.533 0.769 0.076
2021-05-06 2705 1009.782 -0.751 -0.074
2021-05-07 2702 1011.801 2.019 0.2
2021-05-08 2701 1015.361 3.56 0.352
2021-05-09 2702 1015.361 0 0
2021-05-10 2698 1015.361 0 0
2021-05-11 2698 1017.525 2.164 0.213
2021-05-12 2691 1017.664 0.139 0.014
2021-05-13 2683 1016.555 -1.109 -0.109
2021-05-14 2684 1016.555 0 0
2021-05-15 2685 1018.411 1.856 0.183
2021-05-16 2685 1018.411 0 0
2021-05-17 2688 1018.411 0 0
2021-05-18 2693 1019.35 0.939 0.092
2021-05-19 2692 1021.843 2.493 0.245
2021-05-20 2696 1019.976 -1.867 -0.183
2021-05-21 2697 1020.883 0.907 0.089
2021-05-22 2691 1024.755 3.872 0.379
2021-05-23 2691 1024.755 0 0
2021-05-24 2686 1024.755 0 0
2021-05-25 2685 1024.755 0 0
2021-05-26 2683 1025.635 0.88 0.086
2021-05-27 2692 1025.635 0 0
2021-05-28 2686 1028.178 2.543 0.248
2021-05-29 2688 1030.307 2.129 0.207
2021-05-30 2689 1030.307 0 0
2021-05-31 2689 1030.307 0 0
2021-06-01 2689 1030.307 0 0
2021-06-02 2705 1023.823 -6.484 -0.629
2021-06-03 2709 1021.214 -2.609 -0.255
2021-06-04 2704 1023.684 2.47 0.242
2021-06-05 2704 1022.352 -1.332 -0.13
2021-06-06 2704 1022.352 0 0
2021-06-07 2701 1022.352 0 0
2021-06-08 2700 1025.142 2.79 0.273
2021-06-09 2703 1023.876 -1.266 -0.123
2021-06-10 2703 1022.789 -1.087 -0.106
2021-06-11 2704 1021.599 -1.19 -0.116
2021-06-12 2703 1021.441 -0.158 -0.015
2021-06-13 2703 1021.441 0 0
2021-06-14 2703 1021.441 0 0
2021-06-16 2698 1018.063 -3.378 -0.331
2021-06-17 2691 1017.923 -0.14 -0.014
2021-06-18 2694 1007.6 -10.323 -1.014
2021-06-19 2694 1007.6 0 0
2021-06-20 2690 1010.533 2.933 0.291
2021-06-21 2687 1010.533 0 0
2021-06-22 2692 1007.159 -3.374 -0.334
2021-06-23 2693 1003.604 -3.555 -0.353
2021-06-24 2693 1004.82 1.216 0.121
2021-06-25 2695 1006.378 1.558 0.155
2021-06-26 2697 1005.971 -0.407 -0.04
2021-06-27 2697 1005.971 0 0
2021-06-28 2695 1005.971 0 0
2021-06-30 2697 1005.454 -0.517 -0.051
2021-07-01 2692 1004.144 -1.31 -0.13
2021-07-02 2691 1001.08 -3.064 -0.305
2021-07-03 2702 1001.08 0 0
2021-07-04 2702 1001.08 0 0
2021-07-05 2701 1001.08 0 0
2021-07-06 2701 1001.08 0 0
2021-07-07 2686 1001.164 0.084 0.008
2021-07-08 2693 1000.292 -0.872 -0.087
2021-07-10 2695 1000.007 -0.285 -0.028
2021-07-11 2695 1000.007 0 0
2021-07-12 2693 1000.007 0 0
2021-07-13 2698 1000.827 0.82 0.082
2021-07-14 2694 1001.936 1.109 0.111
2021-07-15 2696 1000.677 -1.259 -0.126
2021-07-16 2687 1001.23 0.553 0.055
2021-07-17 2690 1000.945 -0.285 -0.028
2021-07-18 2690 1000.945 0 0
2021-07-19 2683 1000.945 0 0
2021-07-21 2679 1000.308 -0.637 -0.064
2021-07-22 2687 1000.308 0 0
2021-07-23 2684 1002.315 2.007 0.201
2021-07-24 2683 1003.115 0.8 0.08
2021-07-25 2683 1003.115 0 0
2021-07-26 2680 1003.115 0 0
2021-07-27 2667 1002.945 -0.17 -0.017
2021-07-28 2663 1002.323 -0.622 -0.062
2021-07-29 2667 1003.452 1.129 0.113
2021-07-30 2670 1004.752 1.3 0.13
2021-07-31 2671 1002.997 -1.755 -0.175
2021-08-01 2671 1002.997 0 0
2021-08-02 2672 1002.997 0 0
2021-08-03 2674 1003.975 0.978 0.098
2021-08-04 2674 1004.752 0.777 0.077
2021-08-05 2672 1006.022 1.27 0.126
2021-08-06 2667 1006.276 0.254 0.025
2021-08-07 2664 1006.53 0.254 0.025
2021-08-08 2664 1006.53 0 0
2021-08-09 2661 1006.53 0 0
2021-08-10 2667 1004.989 -1.541 -0.153
2021-08-11 2670 1002.761 -2.228 -0.222
2021-08-13 2665 1005.158 2.397 0.239
2021-08-14 2670 1005.242 0.084 0.008
2021-08-15 2670 1005.242 0 0
2021-08-16 2662 1005.242 0 0
2021-08-17 2659 1005.242 0 0
2021-08-18 2658 1003.857 -1.385 -0.138
2021-08-19 2650 1005.285 1.428 0.142
2021-08-20 2639 1005.285 0 0
2021-08-21 2643 1003.233 -2.052 -0.204
2021-08-22 2643 1003.233 0 0
2021-08-23 2641 1003.233 0 0
2021-08-24 2655 1005.734 2.501 0.249
2021-08-25 2664 1005.995 0.261 0.026
2021-08-26 2662 1005.345 -0.65 -0.065
2021-08-27 2657 1005.582 0.237 0.024
2021-08-28 2652 1012.796 7.214 0.717
2021-08-29 2652 1012.796 0 0
2021-08-30 2652 1012.796 0 0
2021-08-31 2640 1018.575 5.779 0.571
2021-09-01 2642 1022.333 3.758 0.369
2021-09-02 2649 1021.231 -1.102 -0.108
2021-09-03 2646 1021.484 0.253 0.025
2021-09-04 2650 1022.193 0.709 0.069
2021-09-05 2651 1022.193 0 0
2021-09-06 2650 1022.193 0 0
2021-09-07 2652 1022.193 0 0
2021-09-08 2656 1016.469 -5.724 -0.56
2021-09-09 2659 1014.016 -2.453 -0.241
2021-09-10 2650 1015.509 1.493 0.147
2021-09-11 2658 1015.509 0 0
2021-09-12 2657 1015.509 0 0
2021-09-13 2657 1015.509 0 0
2021-09-14 2655 1012.968 -2.541 -0.25
2021-09-15 2649 1012.933 -0.035 -0.003
2021-09-16 2637 1015.518 2.585 0.255
2021-09-17 2641 1015.241 -0.277 -0.027
2021-09-18 2643 1015.674 0.433 0.043
2021-09-19 2641 1015.674 0 0
2021-09-20 2635 1015.674 0 0
2021-09-21 2642 1012.126 -3.548 -0.349
2021-09-22 2640 1012.126 0 0
2021-09-23 2645 1010.379 -1.747 -0.173
2021-09-24 2643 1013.569 3.19 0.316
2021-09-25 2644 1012.77 -0.799 -0.079
2021-09-26 2645 1012.77 0 0
2021-09-27 2639 1012.77 0 0
2021-09-28 2636 1010.791 -1.979 -0.195
2021-09-29 2636 1007.907 -2.884 -0.285
2021-09-30 2634 1006.615 -1.292 -0.128
2021-10-01 2638 1005.53 -1.085 -0.108
2021-10-02 2641 1006.937 1.407 0.14
2021-10-03 2641 1006.937 0 0
2021-10-04 2634 1006.937 0 0
2021-10-05 2645 1004.346 -2.591 -0.257
2021-10-06 2676 1002.492 -1.854 -0.185
2021-11-05 2684 1002.306 -0.186 -0.019
2021-11-06 2683 1002.306 0 0
2021-11-07 2683 1002.306 0 0
2021-11-08 2679 1002.306 0 0
2021-11-09 2681 1008.297 5.991 0.598
2021-11-10 2679 1008.297 0 0
2021-11-11 2688 1003.57 -4.727 -0.469
2021-11-12 2695 1001.643 -1.927 -0.192
2021-11-13 2697 1002.753 1.11 0.111
2021-11-14 2697 1002.753 0 0
2021-11-15 2689 1002.753 0 0
2021-11-16 2693 1002.08 -0.673 -0.067
2021-11-17 2682 1003.57 1.49 0.149
2021-11-18 2680 1004.921 1.351 0.135
2021-11-19 2678 1005.259 0.338 0.034
2021-11-20 2681 1005.259 0 0
2021-11-21 2681 1005.259 0 0
2021-11-22 2672 1005.259 0 0
2021-11-23 2668 1003.13 -2.129 -0.212
2021-11-24 2665 1002.896 -0.234 -0.023
2021-11-25 2668 1003.233 0.337 0.034
2021-11-26 2657 1003.233 0 0
2021-12-31 2659 1002.896 -0.337 -0.034
2022-01-02 2660 1004.067 1.171 0.117
2022-01-03 2656 1004.067 0 0
2022-01-04 2653 1004.067 0 0
2022-01-05 2652 1001.072 -2.995 -0.298
2022-01-06 2641 1003.78 2.708 0.271
2022-01-07 2639 1001.886 -1.894 -0.189
2022-01-08 2643 1004.448 2.562 0.256
2022-01-09 2643 1004.448 0 0
2022-01-10 2639 1004.448 0 0
2022-01-11 2637 1008.111 3.663 0.365
2022-01-12 2639 1009.816 1.705 0.169
2022-01-13 2640 1009.713 -0.103 -0.01
2022-01-14 2634 1010.174 0.461 0.046
2022-01-15 2625 1006.42 -3.754 -0.372
2022-01-16 2644 1006.42 0 0
2022-01-17 2640 1006.42 0 0
2022-01-18 2638 1006.42 0 0
2022-01-19 2632 1000.744 -5.676 -0.564
2022-01-20 2616 1002.676 1.932 0.193
2022-01-22 2610 1002.819 0.143 0.014
2022-01-23 2610 1002.819 0 0
2022-01-24 2602 1002.819 0 0
2022-01-25 2584 1000.929 -1.89 -0.188
2022-02-01 2577 1000.208 -0.721 -0.072
2022-02-24 2554 1000.963 0.755 0.075
2023-01-04  983.554 -17.409 -1.739
2023-01-10  990.96 7.406 0.753
2023-01-14 2514 1020.251 29.291 2.956
2023-01-16 2539 1005.686 -14.565 -1.428
2023-01-17 2541 1000.319 -5.367 -0.534
2023-03-10  991.534 -8.785 -0.878
2023-03-18 2413 1008.213 16.679 1.682
2023-03-19 2412 1008.213 0 0
2023-03-20 2420 1001.791 -6.422 -0.637
2023-03-21  992.353 -9.438 -0.942
2023-03-22 2422 1000.277 7.924 0.799
2023-06-17 2479 1108.141 107.864 10.783
2023-06-18 2479 1108.141 0 0
2023-06-19 2461 1117.274 9.133 0.824
2023-06-20 2509 1076.938 -40.336 -3.61
2023-06-21 2492 1082.179 5.241 0.487
2023-06-22 2542 1042.115 -40.064 -3.702
2023-06-23 2505 1070.257 28.142 2.7
2023-06-24 2499 1069.165 -1.092 -0.102
2023-06-25 2499 1069.165 0 0
2023-06-26 2461 1095.39 26.225 2.453
2023-06-27 2413 1139.823 44.433 4.056
2023-06-28 2351 1185.9 46.077 4.042
2023-06-29 2335 1185.556 -0.344 -0.029
2023-06-30 2287 1223.173 37.617 3.173
2023-07-01 2285 1223.473 0.3 0.025
2023-07-02 2285 1223.473 0 0
2023-07-03 2251 1250.458 26.985 2.206
2023-07-04 2296 1224.287 -26.171 -2.093
2023-07-06 2218 1272.974 48.687 3.977
2023-07-07 2142 1332.047 59.073 4.641
2023-07-08 2144 1328.022 -4.025 -0.302
2023-07-09 2144 1328.022 0 0
2023-07-10 2129 1340.458 12.436 0.936
2023-07-11 2054 1421.611 81.153 6.054
2023-07-12 2004 1465.762 44.151 3.106
2023-07-13 2075 1421.985 -43.777 -2.987
2023-07-14 1994 1494.583 72.598 5.105
2023-07-15 1997 1492.902 -1.681 -0.112
2023-07-16 1997 1492.902 0 0
2023-07-17 2014 1480.759 -12.143 -0.813
2023-07-18 2063 1429.393 -51.366 -3.469
2023-07-19 2077 1418.829 -10.564 -0.739
2023-07-20 2088 1402.621 -16.208 -1.142
2023-07-21 2065 1429.83 27.209 1.94
2023-07-22 2066 1430.442 0.612 0.043
2023-07-23 2066 1430.442 0 0
2023-07-24 2073 1420.551 -9.891 -0.691
2023-07-25 2065 1438.363 17.812 1.254
2023-07-26 2071 1433.112 -5.251 -0.365
2023-07-27 2060 1442.313 9.201 0.642
2023-07-28 2066 1439.911 -2.402 -0.167
2023-07-29 2070 1434.366 -5.545 -0.385
2023-07-30 2070 1434.366 0 0
2023-07-31 2080 1429.438 -4.928 -0.344
2023-08-01 2094 1414.782 -14.656 -1.025
2023-08-02 2112 1383.194 -31.588 -2.233
2023-08-04 2096 1393.717 10.523 0.761
2023-08-05 2105 1391.983 -1.734 -0.124
2023-08-06 2105 1391.983 0 0
2023-08-07 2076 1417.202 25.219 1.812
2023-08-08 2037 1448.102 30.9 2.18
2023-08-09 1992 1480.404 32.302 2.231
2023-08-10 2007 1471.561 -8.843 -0.597
2023-08-11 1815 1631.514 159.953 10.87
2023-08-12 1815 1628.471 -3.043 -0.187
2023-08-13 1815 1628.471 0 0
2023-08-14 1820 1616.428 -12.043 -0.74
2023-08-15 1769 1671.277 54.849 3.393
2023-08-16 1671 1780.288 109.011 6.523
2023-08-17 1670 1779.16 -1.128 -0.063
2023-08-18 1714 1712.259 -66.901 -3.76
2023-08-19 1712 1713.132 0.873 0.051
2023-08-20 1713 1713.132 0 0
2023-08-21 1679 1752.902 39.77 2.321
2023-08-22 1658 1781.363 28.461 1.624
2023-08-23 1660 1777.845 -3.518 -0.197
2023-08-24 1694 1739.541 -38.304 -2.155
2023-08-26 1724 1696.381 -43.16 -2.481
2023-08-27 1724 1696.381 0 0
2023-08-28 1674 1768.053 71.672 4.225
2023-08-29 1638 1823.678 55.625 3.146
2023-08-30 1627 1860.477 36.799 2.018
2023-08-31 1506 2008.635 148.158 7.963
2023-09-01 1547 1956.226 -52.409 -2.609
2023-09-02 1543 1957.879 1.653 0.084
2023-09-03 1543 1957.879 0 0
2023-09-04 1519 1995.95 38.071 1.945
2023-09-05 1572 1934.885 -61.065 -3.059
2023-09-06 1577 1912.006 -22.879 -1.182
2023-09-07 1558 1922.256 10.25 0.536
2023-09-08 1537 1954.791 32.535 1.693
2023-09-09 1539 1961.096 6.305 0.323
2023-09-10 1539 1961.096 0 0
2023-09-12 1617 1846.446 -114.65 -5.846
2023-09-14 1640 1809.114 -3.202 -0.177
2023-09-15 1639 1822.293 13.179 0.728
2023-09-17 1639 1819.307 -2.986 -0.164
2023-09-18 1630 1822.681 3.374 0.185
2023-09-19 1624 1820.63 -2.051 -0.113
2023-09-20 1680 1745.364 -75.266 -4.134
2023-09-21 1703 1703.465 -41.899 -2.401
2023-09-22 1688 1722.371 18.906 1.11
2023-09-23 1685 1725.746 3.375 0.196
2023-09-24 1684 1725.746 0 0
2023-09-25 1757 1640.4 -85.346 -4.945
2023-09-26 1681 1729.571 89.171 5.436
2023-09-27 1650 1782.596 53.025 3.066
2023-09-28 1644 1785.484 2.888 0.162
2023-09-29 1622 1810.515 25.031 1.402
2023-10-01 1621 1813.921 3.406 0.188
2023-10-02 1621 1813.921 0 0
2023-10-03 1608 1830.817 16.896 0.931
2023-10-04 1623 1802.832 -27.985 -1.529
2023-10-05 1587 1859.768 56.936 3.158
2023-10-06 1460 2037.858 178.09 9.576
2023-10-07 1459 2038.24 0.382 0.019
2023-10-08 1459 2038.24 0 0
2023-10-09 1500 1984.681 -53.559 -2.628
2023-10-10 1449 2068.082 83.401 4.202
2023-10-11 1401 2136.242 68.16 3.296
2023-10-12 1393 2161.211 24.969 1.169
2023-10-13 1381 2160.028 -1.183 -0.055
2023-10-14 1378 2159.574 -0.454 -0.021
2023-10-15 1377 2159.574 0 0
2023-10-16 1342 2229.599 70.025 3.243
2023-10-17 1302 2316.058 86.459 3.878
2023-10-18 1278 2361.411 45.353 1.958
2023-10-19 1260 2382.99 21.579 0.914
2023-10-21 1267 2358.065 -24.925 -1.046
2023-10-26 1310 2247.728 -110.337 -4.679
2023-10-27 1311 2256.692 8.964 0.399
2023-10-28 1313 2256.286 -0.406 -0.018
2023-10-29 1314 2256.286 0 0
2023-10-30 1304 2286.624 30.338 1.345
2023-10-31 1312 2265.891 -20.733 -0.907
2023-11-01 1291 2327.849 61.958 2.734
2023-11-02 1287 2337.422 9.573 0.411
2023-11-03 1276 2386.112 48.69 2.083
2023-11-04 1287 2385.072 -1.04 -0.044
2023-11-05 1287 2385.072 0 0
2023-11-06 1221 2513.478 128.406 5.384
2023-11-07 1167 2629.178 115.7 4.603
2023-11-08 1131 2710.628 81.45 3.098
2023-11-09 1174 2623.262 -87.366 -3.223
2023-11-10 1162 2637.727 14.465 0.551
2023-11-11 1162 2635.588 -2.139 -0.081
2023-11-13 1167 2625.488 -10.1 -0.383
2023-11-15 1208 2570.306 -55.182 -2.102
2023-11-16 1264 2454.75 -115.556 -4.496
2023-11-17 1255 2482.063 27.313 1.113
2023-11-18 1255 2480.942 -1.121 -0.045
2023-11-20 1264 2454.358 -26.584 -1.072
2023-11-21 1206 2597.082 142.724 5.815
2023-11-22 1209 2594.068 -3.014 -0.116
2023-11-24 1219 2564.473 -29.595 -1.141
2023-11-25 1219 2562.707 -1.766 -0.069
2023-11-26 1219 2562.707 0 0
2023-11-27 1217 2562.707 0 0
2023-11-28 1220 2552.611 -10.096 -0.394
2023-11-29 1238 2512.902 -39.709 -1.556
2023-11-30 1230 2540.371 27.469 1.093
2023-12-01 1200 2607.486 67.115 2.642
2023-12-03 1199 2610.538 3.052 0.117
2023-12-04 1190 2619.896 9.358 0.358
2023-12-05 1189 2626.003 6.107 0.233
2023-12-06 1214 2556.194 -69.809 -2.658
2023-12-07 1234 2514.106 -42.088 -1.647
2023-12-08 1228 2524.645 10.539 0.419
2023-12-09 1227 2524 -0.645 -0.026
2023-12-10 1227 2524 0 0
2023-12-12 1259 2458.307 -65.693 -2.603
2023-12-13 1240 2495.097 36.79 1.497
2023-12-14 1234 2525.757 30.66 1.229
2023-12-15 1268 2471.002 -54.755 -2.168
2023-12-16 1263 2480.936 9.934 0.402
2023-12-17 1263 2480.936 0 0
2023-12-18 1265 2484.693 3.757 0.151
2023-12-19 1267 2471.902 -12.791 -0.515
2023-12-20 1241 2528.605 56.703 2.294
2023-12-21 1228 2555.75 27.145 1.074
2023-12-22 1209 2604.76 49.01 1.918
2023-12-23 1209 2608.791 4.031 0.155
2023-12-25 1211 2608.791 0 0
2023-12-28 1192 2688.493 79.702 3.055
2023-12-29 1152 2762.082 73.589 2.737
2023-12-30 1152 2760.751 -1.331 -0.048
2023-12-31 1153 2760.751 0 0
2024-01-01 1128 2814.707 53.956 1.954
2024-01-02 1122 2826.322 11.615 0.413
2024-01-03 1132 2797.688 -28.634 -1.013
2024-01-04 1115 2827.983 30.295 1.083
2024-01-05 1132 2789.1 -38.883 -1.375
2024-01-06 1131 2791.283 2.183 0.078
2024-01-07 1132 2791.283 0 0
2024-01-08 1090 2895.51 104.227 3.734
2024-01-09 1060 2971.472 75.962 2.623
2024-01-10 1067 2956.435 -15.037 -0.506
2024-01-11 1032 3042.595 86.16 2.914
2024-01-12 1040 3027.055 -15.54 -0.511
2024-01-13 1041 3031.067 4.012 0.133
2024-01-14 1046 3022.364 -8.703 -0.287
2024-01-15 1060 2990.16 -32.204 -1.066
2024-01-16 1104 2867.337 -122.823 -4.108
2024-01-17 1113 2813.857 -53.48 -1.865
2024-01-18 1117 2809.5 -4.357 -0.155
2024-01-19 1108 2829.433 19.933 0.709
2024-01-20 1118 2811.12 -18.313 -0.647
2024-01-21 1118 2811.12 0 0
2024-01-22 1114 2811.12 0 0
2024-01-23 1139 2744.212 -66.908 -2.38
2024-01-24 1114 2812.766 68.554 2.498
2024-01-25 1135 2759.248 -53.518 -1.903
2024-01-26 1137 2759.746 0.498 0.018
2024-01-27 1137 2759.746 0 0
2024-01-28 1138 2759.746 0 0
2024-01-29 1133 2761.241 1.495 0.054
2024-01-30 1096 2859.38 98.139 3.554
2024-01-31 1142 2725.377 -134.003 -4.686
2024-02-01 1202 2602.494 -122.883 -4.509
2024-02-02 1146 2714.196 111.702 4.292
2024-02-03 1144 2715.895 1.699 0.063
2024-02-04 1142 2715.895 0 0
2024-02-05 1175 2650.368 -65.527 -2.413
2024-02-06 1218 2575.703 -74.665 -2.817
2024-02-07 1183 2641.73 66.027 2.563
2024-02-08 1164 2691.339 49.609 1.878
2024-02-09 1125 2784.907 93.568 3.477
2024-02-10 1125 2782.392 -2.515 -0.09
2024-02-11 1125 2782.392 0 0
2024-02-12 1106 2828.015 45.623 1.64
2024-02-13 1100 2848.405 20.39 0.721
2024-02-14 1107 2832.06 -16.345 -0.574
2024-02-15 1041 3040.519 208.459 7.361
2024-02-16 1064 2982.01 -58.509 -1.924
2024-02-17 1065 2983.002 0.992 0.033
2024-02-18 1066 2983.002 0 0
2024-02-19 1092 2907.073 -75.929 -2.545
2024-02-20 1118 2836.007 -71.066 -2.445
2024-02-21 1091 2921.833 85.826 3.026
2024-02-22 1074 2979.38 57.547 1.97
2024-02-23 1076 2989.407 10.027 0.337
2024-02-24 1075 2989.407 0 0
2024-02-25 1074 2989.407 0 0
2024-02-26 1086 2947.949 -41.458 -1.387
2024-02-27 1111 2882.924 -65.025 -2.206
2024-02-28 1098 2914.613 31.689 1.099
2024-02-29 1055 3049.048 134.435 4.612
2024-03-01 1053 3068.79 19.742 0.647
2024-03-02 1017 3155.489 86.699 2.825
2024-03-03 1017 3155.489 0 0
2024-03-04 1026 3138.262 -17.227 -0.546
2024-03-05 1046 3091.652 -46.61 -1.485
2024-03-06 1041 3114.528 22.876 0.74
2024-03-07 1029 3148.321 33.793 1.085
2024-03-08 1027 3150.078 1.757 0.056
2024-03-09 1032 3150.078 0 0
2024-03-10 1030 3150.078 0 0
2024-03-11 1074 3048.435 -101.643 -3.227
2024-03-12 1124 2941.966 -106.469 -3.493
2024-03-13 1095 2993.33 51.364 1.746
2024-03-14 1106 2965.617 -27.713 -0.926
2024-03-15 1143 2858.416 -107.201 -3.615
2024-03-16 1144 2856.261 -2.155 -0.075
2024-03-17 1144 2856.261 0 0
2024-03-18 1144 2873.867 17.606 0.616
2024-03-19 1155 2823.592 -50.275 -1.749
2024-03-20 1156 2821.871 -1.721 -0.061
2024-03-21 1129 2900.518 78.647 2.787
2024-03-22 1112 2955.384 54.866 1.892
2024-03-23 1117 2945.819 -9.565 -0.324
2024-03-24 1117 2945.819 0 0
2024-03-25 1112 2945.819 0 0
2024-03-26 1079 3062.688 116.869 3.967
2024-03-27 1035 3175.014 112.326 3.668
2024-03-28 1003 3265.532 90.518 2.851
2024-03-29 1005 3264.6 -0.932 -0.029
2024-03-30 1035 3264.6 0 0
2024-03-31 1035 3264.6 0 0
2024-04-01 1007 3247.474 -17.126 -0.525
2024-04-02 1025 3267.951 20.477 0.631
2024-04-03 1017 3270.075 2.124 0.065
2024-04-04 1013 3284.792 14.717 0.45
2024-04-05 1015 3284.422 -0.37 -0.011
2024-04-06 1008 3290.581 6.159 0.188
2024-04-07 1008 3290.581 0 0
2024-04-08 1001 3308.848 18.267 0.555
2024-04-09 1032 3248.975 -59.873 -1.809
2024-04-10 1060 3190.463 -58.512 -1.801
2024-04-11 1056 3195.111 4.648 0.146
2024-04-12 1003 3269.384 74.273 2.325
2024-04-13 1004 3260.421 -8.963 -0.274
2024-04-14 1004 3260.421 0 0
2024-04-15 1035 3196.029 -64.392 -1.975
2024-04-16 1052 3154.787 -41.242 -1.29
2024-04-17 1049 3151.2 -3.587 -0.114
2024-04-18 1076 3067.205 -83.995 -2.665
2024-04-19 1062 3111.432 44.227 1.442
2024-04-20 1060 3114.232 2.8 0.09
2024-04-21 1060 3114.232 0 0
2024-04-22 1080 3069.593 -44.639 -1.433
2024-04-23 1042 3165.685 96.092 3.13
2024-04-24 1026 3218.839 53.154 1.679
2024-04-25 1034 3192.035 -26.804 -0.833
2024-04-26 1040 3197.902 5.867 0.184
2024-04-27 1041 3196.947 -0.955 -0.03
2024-04-28 1041 3196.947 0 0
2024-04-29 1067 3146.655 -50.292 -1.573
2024-04-30 1059 3157.471 10.816 0.344
2024-05-01 1054 3159.076 1.605 0.051
2024-05-02 1063 3140.841 -18.235 -0.577
2024-05-03 1082 3101.301 -39.54 -1.259
2024-05-04 1081 3102.606 1.305 0.042
2024-05-05 1081 3102.606 0 0
2024-05-06 1119 3054.597 -48.009 -1.547
2024-05-07 1144 2975.285 -79.312 -2.596
2024-05-08 1126 3003.529 28.244 0.949
2024-05-09 1116 3032.899 29.37 0.978
2024-05-10 1078 3132.815 99.916 3.294
2024-05-11 1078 3133.193 0.378 0.012
2024-05-12 1078 3133.193 0 0
2024-05-13 1115 3051.384 -81.809 -2.611
2024-05-14 1132 3033.932 -17.452 -0.572
2024-05-15 1084 3118.964 85.032 2.803
2024-05-16 1080 3134.027 15.063 0.483
2024-05-17 1073 3163.686 29.659 0.946
2024-05-18 1075 3153.179 -10.507 -0.332
2024-05-19 1075 3153.179 0 0
2024-05-20 1075 3153.179 0 0
2024-05-21 1107 3070.836 -82.343 -2.611
2024-05-22 1115 3056.103 -14.733 -0.48
2024-05-23 1094 3088.527 32.424 1.061
2024-05-24 1097 3073.613 -14.914 -0.483
2024-05-25 1097 3080.408 6.795 0.221
2024-05-26 1097 3080.408 0 0
2024-05-27 1082 3114.785 34.377 1.116
2024-05-28 1085 3090.497 -24.288 -0.78
2024-05-29 1113 3028.216 -62.281 -2.015
2024-05-30 1144 2943.846 -84.37 -2.786
2024-05-31 1123 2984.694 40.848 1.388
2024-06-01 1126 2979.198 -5.496 -0.184
2024-06-02 1126 2979.198 0 0
2024-06-03 1130 2985.894 6.696 0.225
2024-06-04 1153 2912.133 -73.761 -2.47
2024-06-05 1100 3069.706 157.573 5.411
2024-06-06 1105 3054.75 -14.956 -0.487
2024-06-07 1085 3108.276 53.526 1.752
2024-06-09 1084 3112.007 3.731 0.12
2024-06-10 1074 3120.2 8.193 0.263
2024-06-11 1069 3116.826 -3.374 -0.108
2024-06-12 1095 3073.255 -43.571 -1.398
2024-06-13 1113 3040.446 -32.809 -1.068
2024-06-14 1105 3048.859 8.413 0.277
2024-06-15 1103 3048.359 -0.5 -0.016
2024-06-16 1103 3048.359 0 0
2024-06-17 1102 3048.359 0 0
2024-06-18 1031 3230.806 182.447 5.985
2024-06-19 1027 3233.44 2.634 0.082
2024-06-20 1003 3287.04 53.6 1.658
2024-06-21 945 3427.075 140.035 4.26
2024-06-22 941 3431.793 4.718 0.138
2024-06-23 941 3431.793 0 0
2024-06-24 956 3388.676 -43.117 -1.256
2024-06-25 983 3338.072 -50.604 -1.493
2024-06-26 933 3476.147 138.075 4.136
2024-06-27 898 3598.29 122.143 3.514
2024-06-28 841 3815.639 217.349 6.04
2024-06-29 841 3818.897 3.258 0.085
2024-06-30 841 3818.897 0 0
2024-07-01 848 3785.012 -33.885 -0.887
2024-07-02 848 3767.201 -17.811 -0.471
2024-07-03 871 3697.566 -69.635 -1.848
2024-07-04 870 3723.22 25.654 0.694
2024-07-05 857 3758.163 34.943 0.939
2024-07-06 857 3759.856 1.693 0.045
2024-07-07 857 3759.856 0 0
2024-07-08 856 3767.294 7.438 0.198
2024-07-09 858 3771.305 4.011 0.106
2024-07-10 846 3827.368 56.063 1.487
2024-07-11 852 3805.292 -22.076 -0.577
2024-07-12 853 3828.823 23.531 0.618
2024-07-13 853 3830.336 1.513 0.04
2024-07-14 853 3830.336 0 0
2024-07-15 836 3895.013 64.677 1.689
2024-07-16 813 3994.719 99.706 2.56
2024-07-17 816 3995.436 0.717 0.018
2024-07-18 831 3931.543 -63.893 -1.599
2024-07-19 809 4014.738 83.195 2.116
2024-07-20 807 4014.556 -0.182 -0.005
2024-07-21 807 4014.556 0 0
2024-07-22 811 4003.421 -11.135 -0.277
2024-07-23 778 4180.884 177.463 4.433
2024-07-24 717 4437.218 256.334 6.131
2024-07-25 736 4335.033 -102.185 -2.303
2024-07-26 750 4289.188 -45.845 -1.058
2024-07-27 754 4288.163 -1.025 -0.024
2024-07-28 754 4288.163 0 0
2024-07-29 749 4321.17 33.007 0.77
2024-07-30 747 4326.458 5.288 0.122
2024-07-31 739 4378.146 51.688 1.195
2024-08-01 760 4268.375 -109.771 -2.507
2024-08-02 758 4224.244 -44.131 -1.034
2024-08-03 762 4223.114 -1.13 -0.027
2024-08-04 762 4223.114 0 0
2024-08-05 767 4109.294 -113.82 -2.695
2024-08-06 775 4079.821 -29.473 -0.717
2024-08-07 782 4070.042 -9.779 -0.24
2024-08-08 791 4045.633 -24.409 -0.6
2024-08-09 791 4060.799 15.166 0.375
2024-08-10 798 4061.224 0.425 0.01
2024-08-11 798 4061.224 0 0
2024-08-12 777 4151.468 90.244 2.222
2024-08-13 779 4198.613 47.145 1.136
2024-08-14 770 4282.92 84.307 2.008
2024-08-15 772 4284.063 1.143 0.027
2024-08-16 766 4312.542 28.479 0.665
2024-08-17 767 4312.481 -0.061 -0.001
2024-08-18 767 4312.481 0 0
2024-08-19 796 4139.386 -173.095 -4.014
2024-08-20 810 4084.689 -54.697 -1.321
2024-08-21 804 4139.938 55.249 1.353
2024-08-22 737 4497.743 357.805 8.643
2024-08-23 753 4431.513 -66.23 -1.473
2024-08-24 755 4434.021 2.508 0.057
2024-08-25 755 4434.021 0 0
2024-08-26 718 4642.368 208.347 4.699
2024-08-27 721 4620.942 -21.426 -0.462
2024-08-28 723 4598.344 -22.598 -0.489
2024-08-29 728 4594.943 -3.401 -0.074
2024-08-30 714 4663.487 68.544 1.492
2024-08-31 711 4663.487 0 0
2024-09-01 716 4663.487 0 0
2024-09-02 685 4854.137 190.65 4.088
2024-09-03 661 4934.249 80.112 1.65
2024-09-04 654 4968.529 34.28 0.695
2024-09-05 664 4908.483 -60.046 -1.209
2024-09-06 666 4914.562 6.079 0.124
2024-09-07 666 4916.757 2.195 0.045
2024-09-08 666 4916.757 0 0
2024-09-09 673 4869.426 -47.331 -0.963
2024-09-10 672 4851.537 -17.889 -0.367
2024-09-11 650 4976.169 124.632 2.569
2024-09-12 610 5229.313 253.144 5.087
2024-09-13 585 5437.389 208.076 3.979
2024-09-14 587 5442.405 5.016 0.092
2024-09-15 587 5442.405 0 0
2024-09-16 606 5311.881 -130.524 -2.398
2024-09-17 592 5426.496 114.615 2.158
2024-09-18 610 5300.705 -125.791 -2.318
2024-09-19 604 5385.552 84.847 1.601
2024-09-20 580 5565.384 179.832 3.339
2024-09-21 579 5573.162 7.778 0.14
2024-09-22 579 5573.162 0 0
2024-09-23 548 5863.064 289.902 5.202
2024-09-24 550 5895.539 32.475 0.554
2024-09-25 563 5773.182 -122.357 -2.075
2024-09-26 613 5459.049 -314.133 -5.441
2024-09-27 627 5383.064 -75.985 -1.392
2024-09-28 629 5379.764 -3.3 -0.061
2024-09-29 629 5379.764 0 0
2024-09-30 608 5562.702 182.938 3.4
2024-10-01 580 5707.011 144.309 2.594
2024-10-02 581 5705.819 -1.192 -0.021
2024-10-03 603 5559.755 -146.064 -2.56
2024-10-04 622 5408.246 -151.509 -2.725
2024-10-05 623 5408.091 -0.155 -0.003
2024-10-06 622 5408.091 0 0
2024-10-07 633 5319.996 -88.095 -1.629
2024-10-08 623 5390.254 70.258 1.321
2024-10-09 608 5475.126 84.872 1.575
2024-10-10 613 5453.743 -21.383 -0.391
2024-10-11 612 5470.855 17.112 0.314
2024-10-12 614 5464.751 -6.104 -0.112
2024-10-13 614 5464.751 0 0
2024-10-14 582 5696.833 232.082 4.247
2024-10-15 577 5692.98 -3.853 -0.068
2024-10-16 578 5698.525 5.545 0.097
2024-10-17 604 5522.618 -175.907 -3.087
2024-10-18 617 5448.144 -74.474 -1.349
2024-10-19 618 5448.067 -0.077 -0.001
2024-10-20 618 5448.067 0 0
2024-10-21 628 5335.872 -112.195 -2.059
2024-10-22 663 5123.698 -212.174 -3.976
2024-10-23 634 5260.25 136.552 2.665
2024-10-24 631 5270.391 10.141 0.193
2024-10-25 665 5089.662 -180.729 -3.429
2024-10-26 665 5089.438 -0.224 -0.004
2024-10-27 665 5089.438 0 0
2024-10-28 672 5068.692 -20.746 -0.408
2024-10-29 657 5090.358 21.666 0.427
2024-10-30 652 5104.414 14.056 0.276
2024-10-31 678 4972.727 -131.687 -2.58
2024-11-01 656 5077.604 104.877 2.109
2024-11-02 657 5077.604 0 0
2024-11-03 657 5077.604 0 0
2024-11-04 675 4990.783 -86.821 -1.71
2024-11-05 693 4936.391 -54.392 -1.09
2024-11-06 632 5298.543 362.152 7.336
2024-11-07 631 5328.709 30.166 0.569
2024-11-08 652 5234.811 -93.898 -1.762
2024-11-09 646 5234.737 -0.074 -0.001
2024-11-10 646 5234.737 0 0
2024-11-11 645 5286.421 51.684 0.987
2024-11-12 623 5316.787 30.366 0.574
2024-11-13 672 5054.055 -262.732 -4.942
2024-11-14 688 4930.932 -123.123 -2.436
2024-11-15 683 4929.909 -1.023 -0.021
2024-11-16 682 4929.909 0 0
2024-11-17 682 4929.909 0 0
2024-11-18 667 5048.936 119.027 2.414
2024-11-19 623 5293.281 244.345 4.84
2024-11-20 625 5291.952 -1.329 -0.025
2024-11-21 610 5371.164 79.212 1.497
2024-11-22 615 5330.982 -40.182 -0.748
2024-11-23 616 5333.273 2.291 0.043
2024-11-24 616 5333.273 0 0
2024-11-25 624 5301.911 -31.362 -0.588
2024-11-26 637 5238.255 -63.656 -1.201
2024-11-27 635 5258.442 20.187 0.385
2024-11-28 620 5338.713 80.271 1.527
2024-11-29 603 5465.705 126.992 2.379
2024-11-30 603 5462.795 -2.91 -0.053
2024-12-01 603 5462.795 0 0
2024-12-02 609 5447.502 -15.293 -0.28
2024-12-03 612 5467.724 20.222 0.371
2024-12-04 612 5440.908 -26.816 -0.49
2024-12-05 616 5417.274 -23.634 -0.434
2024-12-06 604 5503.647 86.373 1.594
2024-12-07 603 5505.961 2.314 0.042
2024-12-08 603 5505.961 0 0
2024-12-09 565 5838.541 332.58 6.04
2024-12-10 581 5712.776 -125.765 -2.154
2024-12-11 582 5735.243 22.467 0.393
2024-12-12 580 5708.627 -26.616 -0.464
2024-12-13 591 5614.372 -94.255 -1.651
2024-12-14 588 5618.927 4.555 0.081
2024-12-15 588 5618.927 0 0
2024-12-16 574 5739.684 120.757 2.149
2024-12-17 577 5679.799 -59.885 -1.043
2024-12-18 576 5662.193 -17.606 -0.31
2024-12-19 587 5562.797 -99.396 -1.755
2024-12-20 606 5387.114 -175.683 -3.158
2024-12-21 608 5390.91 3.796 0.07
2024-12-22 608 5390.91 0 0
2024-12-23 606 5425.103 34.193 0.634
2024-12-24 613 5389.851 -35.252 -0.65
2024-12-25 613 5384.987 -4.864 -0.09
2024-12-26 602 5455.127 70.14 1.303
2024-12-27 610 5394.678 -60.449 -1.108
2024-12-28 612 5377.341 -17.337 -0.321
2024-12-29 612 5377.341 0 0
2024-12-30 592 5551.435 174.094 3.238
2024-12-31 563 5717.177 165.742 2.986
2025-01-01 558 5769.941 52.764 0.923
2025-01-02 548 5870.683 100.742 1.746
2025-01-03 556 5791.618 -79.065 -1.347
2025-01-04 555 5789.93 -1.688 -0.029
2025-01-05 555 5789.93 0 0
2025-01-06 591 5536.494 -253.436 -4.377
2025-01-07 609 5365.344 -171.15 -3.091
2025-01-08 622 5251.407 -113.937 -2.124
2025-01-09 678 4913.266 -338.141 -6.439
2025-01-10 700 4640.876 -272.39 -5.544
2025-01-11 700 4635.002 -5.874 -0.127
2025-01-12 700 4635.002 0 0
2025-01-13 773 4229.939 -405.063 -8.739
2025-01-14 745 4379.968 150.029 3.547
2025-01-15 824 4064.928 -315.04 -7.193
2025-01-16 856 3958.523 -106.405 -2.618
2025-01-17 924 3671.571 -286.952 -7.249
2025-01-18 927 3669.002 -2.569 -0.07
2025-01-19 928 3669.002 0 0
2025-01-20 876 3889.056 220.054 5.998
2025-01-21 961 3561.586 -327.47 -8.42
2025-01-22 961 3553.132 -8.454 -0.237
2025-01-23 972 3505.887 -47.245 -1.33
2025-01-24 1023 3352.643 -153.244 -4.371
2025-01-25 1028 3362.852 10.209 0.305
2025-01-26 1028 3362.852 0 0
2025-01-27 1081 3202.095 -160.757 -4.78
2025-01-28 1085 3203.401 1.306 0.041
2025-01-29 1054 3282.232 78.831 2.461
2025-01-30 1085 3213.565 -68.667 -2.092
2025-01-31 938 3674.757 461.192 14.351
2025-02-01 935 3694.846 20.089 0.547
2025-02-02 935 3694.846 0 0
2025-02-03 932 3684.777 -10.069 -0.273
2025-02-04 839 4120.502 435.725 11.825
2025-02-05 838 4138.557 18.055 0.438
2025-02-06 880 3931.863 -206.694 -4.994
2025-02-07 882 3908.351 -23.512 -0.598
2025-02-08 882 3915.222 6.871 0.176
2025-02-09 882 3915.222 0 0
2025-02-10 915 3781.478 -133.744 -3.416
2025-02-11 914 3769.772 -11.706 -0.31
2025-02-12 922 3741.129 -28.643 -0.76
2025-02-13 898 3841.688 100.559 2.688
2025-02-14 977 3552.793 -288.895 -7.52
2025-02-15 981 3555.808 3.015 0.085
2025-02-16 981 3555.808 0 0
2025-02-17 941 3699.779 143.971 4.049
2025-02-18 984 3531.999 -167.78 -4.535
2025-02-19 991 3515.252 -16.747 -0.474
2025-02-20 970 3595.122 79.87 2.272
2025-02-21 989 3541.115 -54.007 -1.502
2025-02-22 989 3541.115 0 0
2025-02-23 990 3541.115 0 0
2025-02-24 998 3497.5 -43.615 -1.232
2025-02-25 998 3486.199 -11.301 -0.323
2025-02-26 1008 3466.534 -19.665 -0.564
2025-02-27 1031 3405.043 -61.491 -1.774
2025-02-28 1036 3363.377 -41.666 -1.224
2025-03-01 1042 3351.704 -11.673 -0.347
2025-03-02 1042 3351.704 0 0
2025-03-03 1109 3180.782 -170.922 -5.1
2025-03-04 1051 3321.445 140.663 4.422
2025-03-05 1035 3388.294 66.849 2.013
2025-03-06 1081 3272.783 -115.511 -3.409
2025-03-07 1129 3124.43 -148.353 -4.533
2025-03-08 1129 3124.43 0 0
2025-03-09 1135 3124.43 0 0
2025-03-10 1202 2958.506 -165.924 -5.311
2025-03-11 1153 3054.643 96.137 3.25
2025-03-12 1146 3091.129 36.486 1.194
2025-03-13 1125 3118.175 27.046 0.875
2025-03-14 1128 3125.274 7.099 0.228
2025-03-15 1128 3125.274 0 0
2025-03-16 1128 3125.274 0 0
2025-03-17 1144 3104.484 -20.79 -0.665
2025-03-18 1126 3161.122 56.638 1.824
2025-03-19 1079 3308.201 147.079 4.653
2025-03-20 1042 3417.339 109.138 3.299
2025-03-21 1029 3445.091 27.752 0.812
2025-03-22 1024 3461.171 16.08 0.467
2025-03-23 1024 3461.171 0 0
2025-03-24 986 3605.446 144.275 4.168
2025-03-25 1023 3467.316 -138.13 -3.831
2025-03-26 1015 3498.097 30.781 0.888
2025-03-27 1021 3460.465 -37.632 -1.076
2025-03-28 1019 3444.361 -16.104 -0.465
2025-03-29 1014 3457.055 12.694 0.369
2025-03-30 1014 3457.055 0 0
2025-03-31 1014 3457.055 0 0
2025-04-01 1035 3387.893 -69.162 -2.001
2025-04-02 948 3796.82 408.927 12.07
2025-04-03 947 3771.298 -25.522 -0.672
2025-04-04 996 3608.852 -162.446 -4.307
2025-04-05 986 3617.561 8.709 0.241
2025-04-06 985 3617.561 0 0
2025-04-07 970 3612.255 -5.306 -0.147
2025-04-08 961 3632.511 20.256 0.561
2025-04-09 974 3627.077 -5.434 -0.15
2025-04-10 982 3609.142 -17.935 -0.494
2025-04-11 946 3733.965 124.823 3.459
2025-04-12 940 3761.844 27.879 0.747
2025-04-13 940 3761.844 0 0
2025-04-14 947 3761.844 0 0
2025-04-15 941 3786.995 25.151 0.669
2025-04-16 917 3881.895 94.9 2.506
2025-04-17 921 3883.593 1.698 0.044
2025-04-18 920 3897.808 14.215 0.366
2025-04-19 920 3897.808 0 0
2025-04-20 920 3897.808 0 0
2025-04-21 912 3930.349 32.541 0.835
2025-04-22 927 3910.959 -19.39 -0.493
2025-04-23 909 3998.073 87.114 2.227
2025-04-24 939 3858.187 -139.886 -3.499
2025-04-25 989 3723.386 -134.801 -3.494
2025-04-26 992 3715.79 -7.596 -0.204
2025-04-27 992 3715.79 0 0
2025-04-28 944 3846.226 130.436 3.51
2025-04-29 945 3862.112 15.886 0.413
2025-04-30 957 3841.311 -20.801 -0.539
2025-05-01 949 3876.435 35.124 0.914
2025-05-02 965 3812.198 -64.237 -1.657
2025-05-03 971 3810.336 -1.862 -0.049
2025-05-04 971 3810.336 0 0
2025-05-05 934 3980.785 170.449 4.473
2025-05-06 986 3766.004 -214.781 -5.395
2025-05-07 949 3924.17 158.166 4.2
2025-05-08 974 3819.452 -104.718 -2.669
2025-05-09 969 3840.724 21.272 0.557
2025-05-10 962 3855.454 14.73 0.384
2025-05-11 962 3855.454 0 0
2025-05-12 938 3996.565 141.111 3.66
2025-05-13 911 4123.678 127.113 3.181
2025-05-14 919 4102.155 -21.523 -0.522
2025-05-15 917 4105.391 3.236 0.079
2025-05-16 909 4156.927 51.536 1.255
2025-05-17 912 4157.962 1.035 0.025
2025-05-18 912 4157.962 0 0
2025-05-19 909 4153.052 -4.91 -0.118
2025-05-20 928 4058.014 -95.038 -2.288
2025-05-21 919 4090.139 32.125 0.792
2025-05-22 913 4106.028 15.889 0.388
2025-05-23 917 4083.161 -22.867 -0.557
2025-05-24 917 4083.161 0 0
2025-05-25 911 4121.669 38.508 0.943
2025-05-26 886 4238.043 116.374 2.823
2025-05-27 896 4192.555 -45.488 -1.073
2025-05-28 885 4243.729 51.174 1.221
2025-05-29 899 4203.087 -40.642 -0.958
2025-05-30 902 4163.531 -39.556 -0.941
2025-05-31 905 4159.941 -3.59 -0.086
2025-06-01 905 4159.941 0 0
2025-06-02 913 4128.987 -30.954 -0.744
2025-06-03 916 4139.053 10.066 0.244
2025-06-04 915 4126.633 -12.42 -0.3
2025-06-05 927 4097.076 -29.557 -0.716
2025-06-06 911 4166.739 69.663 1.7
2025-06-07 907 4174.645 7.906 0.19
2025-06-08 907 4174.645 0 0
2025-06-09 936 4085.255 -89.39 -2.141
2025-06-10 941 4054.67 -30.585 -0.749
2025-06-11 954 3964.901 -89.769 -2.214
2025-06-12 987 3843.608 -121.293 -3.059
2025-06-13 985 3842.433 -1.175 -0.031
2025-06-14 988 3820.506 -21.927 -0.571
2025-06-15 987 3820.506 0 0
2025-06-16 982 3838.891 18.385 0.481
2025-06-17 996 3788.224 -50.667 -1.32
2025-06-18 990 3823.883 35.659 0.941
2025-06-19 1005 3743.913 -79.97 -2.091
2025-06-20 992 3798.821 54.908 1.467
2025-06-21 994 3793.916 -4.905 -0.129
2025-06-22 994 3793.916 0 0
2025-06-23 997 3771.534 -22.382 -0.59
2025-06-24 994 3806.497 34.963 0.927
2025-06-25 944 3985.671 179.174 4.707
2025-06-26 932 4079.6 93.929 2.357
2025-06-27 945 4031.573 -48.027 -1.177
2025-06-28 945 4041.769 10.196 0.253
2025-06-29 945 4041.769 0 0
2025-06-30 929 4126.034 84.265 2.085
2025-07-01 911 4220.651 94.617 2.293
2025-07-02 890 4348.076 127.425 3.019
2025-07-03 899 4316.893 -31.183 -0.717
2025-07-04 893 4358.4 41.507 0.962
2025-07-05 893 4358.4 0 0
2025-07-06 893 4358.4 0 0
2025-07-07 892 4347.798 -10.602 -0.243
2025-07-08 912 4246.527 -101.271 -2.329
2025-07-09 903 4289.881 43.354 1.021
2025-07-10 893 4356.549 66.668 1.554
2025-07-11 896 4318.066 -38.483 -0.883
2025-07-12 895 4310.387 -7.679 -0.178
2025-07-13 895 4310.387 0 0
2025-07-14 893 4335.987 25.6 0.594
2025-07-15 887 4343.599 7.612 0.176
2025-07-16 884 4366.131 22.532 0.519
2025-07-17 871 4438.141 72.01 1.649
2025-07-18 897 4357.32 -80.821 -1.821
2025-07-19 897 4353.4 -3.92 -0.09
2025-07-20 897 4353.4 0 0
2025-07-21 893 4357.9 4.5 0.103
2025-07-22 894 4368.296 10.396 0.239
2025-07-23 859 4501.332 133.036 3.045
2025-07-24 858 4511.847 10.515 0.234
2025-07-25 907 4366.474 -145.373 -3.222
2025-07-26 904 4360.862 -5.612 -0.129
2025-07-27 904 4360.862 0 0
2025-07-28 900 4388.864 28.002 0.642
2025-07-29 878 4434.638 45.774 1.043
2025-07-30 871 4440.732 6.094 0.137
2025-07-31 899 4325.203 -115.529 -2.602
2025-08-01 915 4226.094 -99.109 -2.291
2025-08-02 914 4228.807 2.713 0.064
2025-08-03 914 4228.807 0 0
2025-08-04 897 4331.02 102.213 2.417
2025-08-05 895 4346.149 15.129 0.349
2025-08-06 912 4262.026 -84.123 -1.936
2025-08-07 913 4277.949 15.923 0.374
2025-08-08 1005 3814.61 -463.339 -10.831
2025-08-09 1005 3816.625 2.015 0.053
2025-08-10 1005 3816.625 0 0
2025-08-11 988 3883.692 67.067 1.757
2025-08-12 1016 3778.93 -104.762 -2.697
2025-08-13 1035 3725.687 -53.243 -1.409
2025-08-14 995 3869.526 143.839 3.861
2025-08-15 998 3864.775 -4.751 -0.123
2025-08-16 1000 3864.775 0 0
2025-08-17 1000 3864.775 0 0
2025-08-18 1028 3766.276 -98.499 -2.549
2025-08-19 1067 3679.288 -86.988 -2.31
2025-08-20 1053 3718.871 39.583 1.076
2025-08-21 1053 3717.614 -1.257 -0.034
2025-08-22 1056 3713.039 -4.575 -0.123
2025-08-23 1069 3701.717 -11.322 -0.305
2025-08-24 1069 3701.717 0 0
2025-08-25 1068 3699.871 -1.846 -0.05
2025-08-26 1099 3601.296 -98.575 -2.664
2025-08-27 1092 3597.394 -3.902 -0.108
2025-08-28 1078 3683.965 86.571 2.406
2025-08-29 1087 3648.468 -35.497 -0.964
2025-08-30 1091 3623.882 -24.586 -0.674
2025-08-31 1093 3623.882 0 0
2025-09-01 1088 3661.962 38.08 1.051
2025-09-02 1088 3652.076 -9.886 -0.27
2025-09-03 1085 3696.727 44.651 1.223
2025-09-04 1110 3608.599 -88.128 -2.384
2025-09-05 1110 3609.097 0.498 0.014
2025-09-06 1115 3604.905 -4.192 -0.116
2025-09-07 1115 3604.905 0 0
2025-09-08 1105 3631.99 27.085 0.751
2025-09-09 1120 3589.899 -42.091 -1.159
2025-09-10 1103 3643.05 53.151 1.481
2025-09-11 1107 3636.6 -6.45 -0.177
2025-09-12 1126 3601.017 -35.583 -0.978
2025-09-13 1124 3607.797 6.78 0.188
2025-09-14 1124 3607.797 0 0
2025-09-15 1119 3622.434 14.637 0.406
2025-09-16 1109 3645.927 23.493 0.649
2025-09-17 1069 3764.543 118.616 3.253
2025-09-18 1080 3716.979 -47.564 -1.263
2025-09-19 1120 3610.691 -106.288 -2.86
2025-09-20 1119 3612.228 1.537 0.043
2025-09-21 1119 3612.228 0 0
2025-09-22 1246 3228.962 -383.266 -10.61
2025-09-23 1275 3155.527 -73.435 -2.274
2025-09-24 1322 3032.624 -122.903 -3.895
2025-09-25 1354 2933.851 -98.773 -3.257
2025-09-26 1371 2888.634 -45.217 -1.541
2025-09-27 1372 2887.129 -1.505 -0.052
2025-09-28 1371 2887.129 0 0
2025-09-29 1399 2846.187 -40.942 -1.418
2025-09-30 1381 2879.51 33.323 1.171
2025-10-01 1350 2947.457 67.947 2.36
2025-10-02 1351 2950.528 3.071 0.104
2025-10-03 1293 3120.416 169.888 5.758
2025-10-04 1294 3117.274 -3.142 -0.101
2025-10-05 1294 3117.274 0 0
2025-10-06 1306 3076.363 -40.911 -1.312
2025-10-07 1305 3092.239 15.876 0.516
2025-10-08 1320 3054.784 -37.455 -1.211
2025-10-09 1322 3062.171 7.387 0.242
2025-10-10 1302 3073.612 11.441 0.374
2025-10-11 1301 3076.883 3.271 0.106
2025-10-12 1301 3076.883 0 0
2025-10-13 1324 3011.616 -65.267 -2.121
2025-10-14 1331 2978.118 -33.498 -1.112
2025-10-15 1326 3022.864 44.746 1.502
2025-10-16 1296 3113.815 90.951 3.009
2025-10-17 1282 3139.005 25.19 0.809
2025-10-18 1284 3133.7 -5.305 -0.169
2025-10-19 1286 3133.7 0 0
2025-10-20 1276 3166.278 32.578 1.04
2025-10-21 1283 3153.376 -12.902 -0.407
2025-10-22 1278 3153.372 -0.004 0
2025-10-23 1275 3163.7 10.328 0.328
2025-10-24 1275 3171.981 8.281 0.262
2025-10-25 1274 3172.05 0.069 0.002
2025-10-26 1275 3172.05 0 0
2025-10-27 1253 3242.79 70.74 2.23
2025-10-28 1254 3220.58 -22.21 -0.685
2025-10-29 1245 3272.347 51.767 1.607
2025-10-30 1239 3273.792 1.445 0.044
2025-10-31 1246 3236.604 -37.188 -1.136
2025-11-01 1247 3234.143 -2.461 -0.076
2025-11-02 1247 3234.143 0 0
2025-11-03 1233 3270.585 36.442 1.127
2025-11-04 1206 3316.244 45.659 1.396
2025-11-05 1206 3320.826 4.582 0.138
2025-11-06 1223 3254.891 -65.935 -1.985
2025-11-07 1219 3257.685 2.794 0.086
2025-11-08 1220 3256.282 -1.403 -0.043
2025-11-09 1220 3256.282 0 0
2025-11-10 1233 3242.519 -13.763 -0.423
2025-11-11 1236 3233.22 -9.299 -0.287
2025-11-12 1243 3234.234 1.014 0.031
2025-11-13 1273 3161.818 -72.416 -2.239
2025-11-14 1283 3144.152 -17.666 -0.559
2025-11-15 1281 3141.495 -2.657 -0.085
2025-11-16 1281 3141.495 0 0
2025-11-17 1276 3143.734 2.239 0.071
2025-11-18 1280 3115.122 -28.612 -0.91
2025-11-19 1254 3173.922 58.8 1.888
2025-11-20 1231 3203.323 29.401 0.926
2025-11-21 1254 3149.819 -53.504 -1.67
2025-11-22 1260 3122.405 -27.414 -0.87
2025-11-23 1260 3122.405 0 0
2025-11-24 1294 3045.979 -76.426 -2.448
2025-11-25 1299 3044.081 -1.898 -0.062
2025-11-26 1277 3138.677 94.596 3.108
2025-11-27 1283 3114.712 -23.965 -0.764
2025-11-28 1250 3188.145 73.433 2.358
2025-11-29 1256 3181.772 -6.373 -0.2
2025-11-30 1256 3181.772 0 0
2025-12-01 1251 3190.338 8.566 0.269
2025-12-02 1270 3155.122 -35.216 -1.104
2025-12-03 1304 3069.047 -86.075 -2.728
2025-12-04 1310 3057.385 -11.662 -0.38
2025-12-05 1304 3080.985 23.6 0.772
2025-12-06 1304 3080.386 -0.599 -0.019
2025-12-07 1304 3080.386 0 0
2025-12-08 1336 2969.394 -110.992 -3.603
2025-12-09 1345 2955.57 -13.824 -0.466
2025-12-10 1382 2889.366 -66.204 -2.24
2025-12-11 1356 2940.357 50.991 1.765
2025-12-12 1339 2985.558 45.201 1.537
2025-12-13 1340 2983.494 -2.064 -0.069
2025-12-14 1340 2983.494 0 0
2025-12-15 1333 2988.202 4.708 0.158
2025-12-16 1337 2970.592 -17.61 -0.589
2025-12-17 1366 2932.708 -37.884 -1.275
2025-12-18 1370 2927.203 -5.505 -0.188
2025-12-19 1332 3022.425 95.222 3.253
2025-12-20 1326 3053.635 31.21 1.033
2025-12-21 1326 3053.635 0 0
2025-12-22 1327 3057.765 4.13 0.135
2025-12-23 1328 3067.364 9.599 0.314
2025-12-24 1334 3058.493 -8.871 -0.289
2025-12-25 1334 3054.534 -3.959 -0.129
2025-12-26 1328 3081.084 26.55 0.869
2025-12-27 1329 3078.684 -2.4 -0.078
2025-12-28 1329 3078.684 0 0
2025-12-29 1330 3047.733 -30.951 -1.005
2025-12-30 1338 3016.564 -31.169 -1.023
2025-12-31 1331 3043.806 27.242 0.903
