2020-01-19 1911 1254.823
2020-02-07 1882 1252.501
2020-02-15 1887 1249.977
2020-02-16 1887 1249.977
2020-02-17 1890 1249.977
2020-02-18 1886 1249.977
2020-02-19 1891 1246.594
2020-02-20 1891 1246.594
2020-02-21 1884 1245.071
2020-02-22 1887 1245.071
2020-02-23 1885 1245.071
2020-02-24 1876 1245.071
2020-02-25 1863 1238.868
2020-02-26 1854 1240.945
2020-02-27 1845 1244.746
2020-02-28 1836 1246.223
2020-02-29 1832 1236.013
2020-03-01 1837 1236.013
2020-03-02 1843 1236.013
2020-03-03 1861 1226.623
2020-03-04 1878 1216.958
2020-03-05 1874 1218.163
2020-03-06 1925 1169.021
2020-03-07 1937 1161.81
2020-03-08 1934 1161.81
2020-03-09 1903 1161.81
2020-03-10 1899 1156.713
2020-03-11 1875 1156.713
2020-03-12 1833 1163.782
2020-03-13 1828 1154.687
2020-03-14 1826 1159.452
2020-03-15 1827 1159.452
2020-03-16 1796 1159.452
2020-03-17 1787 1153.841
2020-03-18 1763 1154.163
2020-03-19 1738 1154.045
2020-03-20 1760 1142.83
2020-03-21 1766 1139.715
2020-03-22 1766 1139.715
2020-03-23 1746 1139.715
2020-03-24 1760 1118.462
2020-03-25 1792 1129.091
2020-03-26 1815 1129.091
2020-03-27 1823 1140.359
2020-03-28 1814 1145.006
2020-03-29 1814 1145.006
2020-03-30 1814 1145.006
2020-03-31 1819 1133.272
2020-04-01 1822 1132.803
2020-04-02 1804 1132.803
2020-04-03 1810 1132.803
2020-04-04 1810 1125.089
2020-04-05 1810 1125.089
2020-04-06 1810 1125.089
2020-04-07 1837 1125.089
2020-04-08 1971 1133.122
2020-04-09 1992 1122.657
2020-04-10 1993 1123.282
2020-04-11 1993 1123.282
2020-04-12 1993 1123.282
2020-04-13 1994 1123.282
2020-04-14 2002 1123.54
2020-04-15 1995 1123.54
2020-04-16 1991 1121.151
2020-04-17 2007 1114.988
2020-04-18 1998 1122.123
2020-04-19 1998 1122.123
2020-04-20 2001 1122.123
2020-04-21 1987 1119.723
2020-04-23 1999 1117.569
2020-04-24 1984 1126.679
2020-04-25 1992 1120.895
2020-04-26 1992 1120.895
2020-04-27 1998 1120.895
2020-04-28 2000 1123.945
2020-04-29 2007 1124.83
2020-04-30 2008 1132.393
2020-05-01 1995 1141.194
2020-05-02 1993 1141.194
2020-05-03 1993 1141.194
2020-05-04 1983 1141.194
2020-05-05 1993 1131.803
2020-05-06 1995 1133.065
2020-05-07 2001 1131.14
2020-05-08 2006 1131.14
2020-05-09 2010 1134.284
2020-05-10 2010 1134.284
2020-05-11 2007 1134.284
2020-05-12 2006 1131.522
2020-05-13 2001 1134.847
2020-05-14 1991 1135.599
2020-05-15 1996 1134.059
2020-05-16 1995 1134.048
2020-05-17 1995 1134.048
2020-05-18 1998 1134.048
2020-05-19 2012 1128.848
2020-05-20 2016 1132.906
2020-05-21 2014 1130.543
2020-05-22 2003 1133.347
2020-05-23 2001 1128.273
2020-05-24 2001 1128.273
2020-05-25 2001 1128.273
2020-05-26 2017 1128.273
2020-05-27 2021 1132.672
2020-05-28 2018 1131.868
2020-05-29 2024 1131.279
2020-05-30 2023 1133.329
2020-05-31 2023 1133.329
2020-06-01 2035 1133.329
2020-06-02 2049 1134.397
2020-06-03 2053 1137.144
2020-06-04 2061 1135.524
2020-06-05 2068 1133.909
2020-06-06 2072 1133.816
2020-06-07 2072 1133.816
2020-06-08 2070 1133.816
2020-06-09 2071 1134.566
2020-06-10 2069 1133.347
2020-06-11 2063 1133.609
2020-06-12 2063 1130.71
2020-06-13 2057 1129.798
2020-06-14 2057 1129.798
2020-06-15 2055 1129.798
2020-06-16 2059 1127.189
2020-06-17 2070 1124.572
2020-06-18 2069 1124.572
2020-06-19 2067 1125.402
2020-06-20 2070 1124.7
2020-06-21 2070 1124.7
2020-06-22 2068 1124.7
2020-06-23 2065 1127.123
2020-06-24 2065 1127.123
2020-06-25 2063 1131.682
2020-06-26 2061 1132.635
2020-06-27 2057 1132.822
2020-06-28 2057 1132.822
2020-06-29 2051 1132.822
2020-06-30 2055 1133.816
2020-07-01 2057 1135.017
2020-07-07 2077 1135.017
2020-07-08 2078 1143.669
2020-07-09 2080 1142.373
2020-07-10 2072 1142.669
2020-07-11 2078 1139.487
2020-07-12 2078 1139.487
2020-07-13 2085 1139.487
2020-07-14 2075 1139.639
2020-07-15 2077 1136.126
2020-07-16 2072 1136.126
2020-07-17 2069 1139.828
2020-07-18 2069 1139.828
2020-07-20 2070 1142.297
2020-07-21 2073 1142.297
2020-07-22 2075 1146.5
2020-07-23 2076 1146.365
2020-07-24 2069 1146.308
2020-07-25 2071 1145.159
2020-07-26 2068 1145.159
2020-07-27 2067 1145.159
2020-07-28 2068 1145.101
2020-07-29 2070 1144.968
2020-07-30 2074 1145.695
2020-07-31 2075 1145.695
2020-08-04 2074 1145.695
2020-08-05 2076 1141.993
2020-08-06 2087 1143.517
2020-08-07 2086 1143.631
2020-08-08 2079 1143.688
2020-08-09 2079 1143.688
2020-08-10 2083 1143.688
2020-08-12 2088 1143.688
2020-08-13 2088 1145.187
2020-08-14 2087 1145.006
2020-08-15 2087 1144.108
2020-08-16 2087 1144.108
2020-08-17 2090 1144.108
2020-08-18 2095 1144.366
2020-08-19 2094 1146.308
2020-08-20 2094 1145.256
2020-08-21 2094 1142.107
2020-08-22 2088 1144.977
2020-08-23 2088 1144.977
2020-08-24 2089 1144.977
2020-08-25 2084 1153.289
2020-08-26 2080 1153.056
2020-08-27 2079 1153.366
2020-08-28 2073 1161.013
2020-08-29 2074 1167.648
2020-08-30 2074 1167.648
2020-08-31 2069 1167.648
2020-09-01 2077 1164.256
2020-09-02 2067 1175.918
2020-09-03 2066 1173.482
2020-09-04 2069 1166.356
2020-09-05 2060 1171.797
2020-09-06 2060 1171.797
2020-09-07 2056 1171.797
2020-09-08 2058 1171.797
2020-09-09 2055 1164.296
2020-09-10 2058 1165.206
2020-09-11 2061 1166.554
2020-09-12 2063 1165.404
2020-09-13 2063 1165.404
2020-09-14 2071 1165.404
2020-09-15 2070 1166.237
2020-09-16 2072 1163.603
2020-09-17 2071 1165.702
2020-09-18 2076 1163.545
2020-09-19 2071 1166.713
2020-09-21 2061 1166.713
2020-09-22 2055 1167.557
2020-09-23 2054 1164.573
2020-09-24 2044 1164.81
2020-09-25 2046 1159.667
2020-09-26 2041 1164.335
2020-09-27 2041 1164.335
2020-09-28 2050 1164.335
2020-09-29 2047 1161.356
2020-09-30 2052 1160.315
2020-10-01 2055 1161.534
2020-10-03 2043 1171.567
2020-10-04 2043 1171.567
2020-10-05 2046 1171.567
2020-10-06 2054 1169.3
2020-10-07 2054 1169.3
2020-10-08 2065 1168.782
2020-10-09 2063 1170.058
2020-10-10 2065 1171.618
2020-10-11 2067 1171.618
2020-10-12 2070 1171.618
2020-10-13 2074 1169.539
2020-10-14 2073 1168.224
2020-10-16 2073 1167.906
2020-10-17 2073 1167.906
2020-10-18 2073 1167.906
2020-10-19 2070 1168.383
2020-10-20 2069 1167.985
2020-10-21 2074 1166.237
2020-10-22 2077 1164.396
2020-10-23 2077 1165.325
2020-10-24 2077 1164.177
2020-10-25 2076 1164.177
2020-10-26 2074 1164.177
2020-10-27 2074 1160.394
2020-10-28 2072 1162.44
2020-10-29 2069 1160.022
2020-10-30 2064 1156.401
2020-10-31 2063 1156.401
2020-11-01 2063 1156.401
2020-11-02 2072 1156.401
2020-11-03 2077 1151.449
2020-11-04 2080 1151.777
2020-11-05 2093 1146.615
2020-11-06 2092 1151.855
2020-11-07 2091 1154.863
2020-11-08 2091 1154.863
2020-11-09 2109 1154.863
2020-11-10 2111 1155.67
2020-11-11 2113 1155.065
2020-11-12 2114 1152.281
2020-11-13 2121 1148.074
2020-11-14 2111 1148.497
2020-11-15 2111 1148.497
2020-11-17 2125 1148.497
2020-11-18 2117 1150.965
2020-11-19 2115 1155.193
2020-11-20 2114 1153.871
2020-11-21 2115 1155.66
2020-11-22 2118 1155.66
2020-11-23 2120 1155.66
2020-11-24 2120 1156.42
2020-11-25 2120 1157.984
2020-11-26 2120 1159.491
2020-11-27 2128 1159.491
2020-11-28 2132 1157.201
2020-11-29 2132 1157.201
2020-11-30 2130 1157.201
2020-12-01 2135 1157.201
2020-12-02 2130 1163.348
2020-12-03 2130 1161.102
2020-12-04 2144 1159.413
2020-12-05 2142 1161.259
2020-12-06 2142 1161.259
2020-12-07 2140 1161.259
2020-12-08 2141 1159.609
2020-12-09 2141 1165.048
2020-12-10 2140 1164.929
2020-12-11 2140 1163.447
2020-12-12 2141 1163.603
2020-12-13 2141 1163.603
2020-12-14 2142 1163.603
2020-12-15 2143 1164.969
2020-12-16 2142 1164.969
2020-12-17 2155 1164.573
2020-12-18 2158 1164.652
2020-12-19 2159 1164.95
2020-12-20 2159 1164.95
2020-12-21 2154 1164.95
2020-12-22 2149 1161.416
2020-12-23 2195 1160.473
2020-12-24 2199 1161.829
2020-12-25 2195 1165.127
2020-12-26 2195 1165.127
2020-12-27 2195 1165.127
2020-12-28 2193 1165.127
2020-12-29 2191 1165.92
2020-12-31 2197 1169.061
2021-01-01 2186 1172.861
2021-01-02 2186 1172.861
2021-01-03 2186 1172.861
2021-01-04 2187 1172.861
2021-01-05 2197 1173.645
2021-01-06 2201 1171.098
2021-01-07 2202 1172.16
2021-01-08 2212 1168.911
2021-01-09 2208 1169.958
2021-01-10 2208 1169.958
2021-01-11 2205 1169.958
2021-01-12 2345 1017.005
2021-01-13 2342 1018.949
2021-01-14 2344 1020.324
2021-01-15 2343 1021.817
2021-01-16 2343 1021.477
2021-01-17 2343 1021.477
2021-01-18 2342 1021.477
2021-01-19 2340 1021.477
2021-01-20 2342 1020.028
2021-01-21 2344 1021.967
2021-01-22 2334 1022.508
2021-01-23 2334 1022.824
2021-01-24 2334 1022.824
2021-01-25 2335 1022.824
2021-01-26 2332 1023.279
2021-01-27 2336 1023.279
2021-01-28 2331 1023.525
2021-01-29 2333 1021.774
2021-01-30 2334 1022.999
2021-01-31 2334 1022.999
2021-02-01 2332 1022.999
2021-02-02 2331 1021.948
2021-02-03 2334 1022.946
2021-02-04 2335 1022.999
2021-02-05 2334 1022.981
2021-02-06 2336 1023.438
2021-02-07 2337 1023.438
2021-02-08 2339 1023.438
2021-02-09 2346 1022.929
2021-02-10 2346 1024.157
2021-02-11 2350 1024.649
2021-02-12 2347 1024.438
2021-02-13 2347 1025.952
2021-02-14 2347 1025.952
2021-02-15 2347 1025.952
2021-02-16 2350 1025.952
2021-02-17 2352 1026.631
2021-02-18 2351 1025.9
2021-02-19 2350 1027.346
2021-02-20 2351 1027.346
2021-02-21 2353 1027.346
2021-02-22 2354 1027.346
2021-02-23 2355 1029.615
2021-02-24 2354 1030.076
2021-02-25 2354 1031.678
2021-02-26 2348 1030.556
2021-02-27 2355 1015.69
2021-02-28 2357 1015.69
2021-03-01 2353 1015.69
2021-03-02 2353 1014.776
2021-03-03 2357 1017.317
2021-03-04 2349 1026.41
2021-03-05 2346 1024.684
2021-03-06 2355 1022.263
2021-03-07 2351 1022.263
2021-03-08 2344 1022.263
2021-03-09 2343 1018.949
2021-03-11 2332 1023.612
2021-03-12 2341 1023.612
2021-03-13 2343 1025.299
2021-03-14 2344 1025.299
2021-03-15 2338 1025.299
2021-03-16 2341 1029.863
2021-03-18 2343 1028.674
2021-03-19 2339 1028.868
2021-03-20 2335 1029.17
2021-03-21 2335 1029.17
2021-03-22 2336 1029.17
2021-03-23 2334 1031.303
2021-03-24 2330 1030.608
2021-03-25 2325 1028.55
2021-03-26 2332 1028.55
2021-03-27 2330 1029.294
2021-03-29 2328 1029.294
2021-03-30 2327 1029.294
2021-03-31 2339 1017.091
2021-04-01 2340 1020.848
2021-04-02 2340 1020.848
2021-04-03 2340 1020.848
2021-04-04 2341 1020.848
2021-04-05 2341 1020.848
2021-04-06 2344 1018.15
2021-04-07 2346 1016.555
2021-04-08 2344 1016.555
2021-04-09 2723 1001.021
2021-04-17 2715 1003.907
2021-04-18 2715 1003.907
2021-04-19 2712 1003.907
2021-04-29 2722 1003.671
2021-04-30 2712 1008.077
2021-05-01 2713 1007.634
2021-05-02 2712 1007.634
2021-05-03 2709 1007.634
2021-05-04 2705 1009.764
2021-05-05 2705 1010.533
2021-05-06 2705 1009.782
2021-05-07 2702 1011.801
2021-05-08 2701 1015.361
2021-05-09 2702 1015.361
2021-05-10 2698 1015.361
2021-05-11 2698 1017.525
2021-05-12 2691 1017.664
2021-05-13 2683 1016.555
2021-05-14 2684 1016.555
2021-05-15 2685 1018.411
2021-05-16 2685 1018.411
2021-05-17 2688 1018.411
2021-05-18 2693 1019.35
2021-05-19 2692 1021.843
2021-05-20 2696 1019.976
2021-05-21 2697 1020.883
2021-05-22 2691 1024.755
2021-05-23 2691 1024.755
2021-05-24 2686 1024.755
2021-05-25 2685 1024.755
2021-05-26 2683 1025.635
2021-05-27 2692 1025.635
2021-05-28 2686 1028.178
2021-05-29 2688 1030.307
2021-05-30 2689 1030.307
2021-05-31 2689 1030.307
2021-06-01 2689 1030.307
2021-06-02 2705 1023.823
2021-06-03 2709 1021.214
2021-06-04 2704 1023.684
2021-06-05 2704 1022.352
2021-06-06 2704 1022.352
2021-06-07 2701 1022.352
2021-06-08 2700 1025.142
2021-06-09 2703 1023.876
2021-06-10 2703 1022.789
2021-06-11 2704 1021.599
2021-06-12 2703 1021.441
2021-06-13 2703 1021.441
2021-06-14 2703 1021.441
2021-06-16 2698 1018.063
2021-06-17 2691 1017.923
2021-06-18 2694 1007.6
2021-06-19 2694 1007.6
2021-06-20 2690 1010.533
2021-06-21 2687 1010.533
2021-06-22 2692 1007.159
2021-06-23 2693 1003.604
2021-06-24 2693 1004.82
2021-06-25 2695 1006.378
2021-06-26 2697 1005.971
2021-06-27 2697 1005.971
2021-06-28 2695 1005.971
2021-06-30 2697 1005.454
2021-07-01 2692 1004.144
2021-07-02 2691 1001.08
2021-07-03 2702 1001.08
2021-07-04 2702 1001.08
2021-07-05 2701 1001.08
2021-07-06 2701 1001.08
2021-07-07 2686 1001.164
2021-07-08 2693 1000.292
2021-07-10 2695 1000.007
2021-07-11 2695 1000.007
2021-07-12 2693 1000.007
2021-07-13 2698 1000.827
2021-07-14 2694 1001.936
2021-07-15 2696 1000.677
2021-07-16 2687 1001.23
2021-07-17 2690 1000.945
2021-07-18 2690 1000.945
2021-07-19 2683 1000.945
2021-07-21 2679 1000.308
2021-07-22 2687 1000.308
2021-07-23 2684 1002.315
2021-07-24 2683 1003.115
2021-07-25 2683 1003.115
2021-07-26 2680 1003.115
2021-07-27 2667 1002.945
2021-07-28 2663 1002.323
2021-07-29 2667 1003.452
2021-07-30 2670 1004.752
2021-07-31 2671 1002.997
2021-08-01 2671 1002.997
2021-08-02 2672 1002.997
2021-08-03 2674 1003.975
2021-08-04 2674 1004.752
2021-08-05 2672 1006.022
2021-08-06 2667 1006.276
2021-08-07 2664 1006.53
2021-08-08 2664 1006.53
2021-08-09 2661 1006.53
2021-08-10 2667 1004.989
2021-08-11 2670 1002.761
2021-08-13 2665 1005.158
2021-08-14 2670 1005.242
2021-08-15 2670 1005.242
2021-08-16 2662 1005.242
2021-08-17 2659 1005.242
2021-08-18 2658 1003.857
2021-08-19 2650 1005.285
2021-08-20 2639 1005.285
2021-08-21 2643 1003.233
2021-08-22 2643 1003.233
2021-08-23 2641 1003.233
2021-08-24 2655 1005.734
2021-08-25 2664 1005.995
2021-08-26 2662 1005.345
2021-08-27 2657 1005.582
2021-08-28 2652 1012.796
2021-08-29 2652 1012.796
2021-08-30 2652 1012.796
2021-08-31 2640 1018.575
2021-09-01 2642 1022.333
2021-09-02 2649 1021.231
2021-09-03 2646 1021.484
2021-09-04 2650 1022.193
2021-09-05 2651 1022.193
2021-09-06 2650 1022.193
2021-09-07 2652 1022.193
2021-09-08 2656 1016.469
2021-09-09 2659 1014.016
2021-09-10 2650 1015.509
2021-09-11 2658 1015.509
2021-09-12 2657 1015.509
2021-09-13 2657 1015.509
2021-09-14 2655 1012.968
2021-09-15 2649 1012.933
2021-09-16 2637 1015.518
2021-09-17 2641 1015.241
2021-09-18 2643 1015.674
2021-09-19 2641 1015.674
2021-09-20 2635 1015.674
2021-09-21 2642 1012.126
2021-09-22 2640 1012.126
2021-09-23 2645 1010.379
2021-09-24 2643 1013.569
2021-09-25 2644 1012.77
2021-09-26 2645 1012.77
2021-09-27 2639 1012.77
2021-09-28 2636 1010.791
2021-09-29 2636 1007.907
2021-09-30 2634 1006.615
2021-10-01 2638 1005.53
2021-10-02 2641 1006.937
2021-10-03 2641 1006.937
2021-10-04 2634 1006.937
2021-10-05 2645 1004.346
2021-10-06 2676 1002.492
2021-11-05 2684 1002.306
2021-11-06 2683 1002.306
2021-11-07 2683 1002.306
2021-11-08 2679 1002.306
2021-11-09 2681 1008.297
2021-11-10 2679 1008.297
2021-11-11 2688 1003.57
2021-11-12 2695 1001.643
2021-11-13 2697 1002.753
2021-11-14 2697 1002.753
2021-11-15 2689 1002.753
2021-11-16 2693 1002.08
2021-11-17 2682 1003.57
2021-11-18 2680 1004.921
2021-11-19 2678 1005.259
2021-11-20 2681 1005.259
2021-11-21 2681 1005.259
2021-11-22 2672 1005.259
2021-11-23 2668 1003.13
2021-11-24 2665 1002.896
2021-11-25 2668 1003.233
2021-11-26 2657 1003.233
2021-12-31 2659 1002.896
