2020-01-19 1911 1254.823 0 0
2020-02-07 1882 1252.501 -2.322 -0.185
2020-02-15 1887 1249.977 -2.524 -0.202
2020-02-16 1887 1249.977 0 0
2020-02-17 1890 1249.977 0 0
2020-02-18 1886 1249.977 0 0
2020-02-19 1891 1246.594 -3.383 -0.271
2020-02-20 1891 1246.594 0 0
2020-02-21 1884 1245.071 -1.523 -0.122
2020-02-22 1887 1245.071 0 0
2020-02-23 1885 1245.071 0 0
2020-02-24 1876 1245.071 0 0
2020-02-25 1863 1238.868 -6.203 -0.501
2020-02-26 1854 1240.945 2.077 0.167
2020-02-27 1845 1244.746 3.801 0.305
2020-02-28 1836 1246.223 1.477 0.119
2020-02-29 1832 1236.013 -10.21 -0.826
2020-03-01 1837 1236.013 0 0
2020-03-02 1843 1236.013 0 0
2020-03-03 1861 1226.623 -9.39 -0.766
2020-03-04 1878 1216.958 -9.665 -0.794
2020-03-05 1874 1218.163 1.205 0.099
2020-03-06 1925 1169.021 -49.142 -4.204
2020-03-07 1937 1161.81 -7.211 -0.621
2020-03-08 1934 1161.81 0 0
2020-03-09 1903 1161.81 0 0
2020-03-10 1899 1156.713 -5.097 -0.441
2020-03-11 1875 1156.713 0 0
2020-03-12 1833 1163.782 7.069 0.607
2020-03-13 1828 1154.687 -9.095 -0.788
2020-03-14 1826 1159.452 4.765 0.411
2020-03-15 1827 1159.452 0 0
2020-03-16 1796 1159.452 0 0
2020-03-17 1787 1153.841 -5.611 -0.486
2020-03-18 1763 1154.163 0.322 0.028
2020-03-19 1738 1154.045 -0.118 -0.01
2020-03-20 1760 1142.83 -11.215 -0.981
2020-03-21 1766 1139.715 -3.115 -0.273
2020-03-22 1766 1139.715 0 0
2020-03-23 1746 1139.715 0 0
2020-03-24 1760 1118.462 -21.253 -1.9
2020-03-25 1792 1129.091 10.629 0.941
2020-03-26 1815 1129.091 0 0
2020-03-27 1823 1140.359 11.268 0.988
2020-03-28 1814 1145.006 4.647 0.406
2020-03-29 1814 1145.006 0 0
2020-03-30 1814 1145.006 0 0
2020-03-31 1819 1133.272 -11.734 -1.035
2020-04-01 1822 1132.803 -0.469 -0.041
2020-04-02 1804 1132.803 0 0
2020-04-03 1810 1132.803 0 0
2020-04-04 1810 1125.089 -7.714 -0.686
2020-04-05 1810 1125.089 0 0
2020-04-06 1810 1125.089 0 0
2020-04-07 1837 1125.089 0 0
2020-04-08 1971 1133.122 8.033 0.709
2020-04-10 1993 1123.282 -9.84 -0.876
2020-04-11 1993 1123.282 0 0
2020-04-12 1993 1123.282 0 0
2020-04-13 1994 1123.282 0 0
2020-04-14 2002 1123.54 0.258 0.023
2020-04-15 1995 1123.54 0 0
2020-04-17 2007 1114.988 -8.552 -0.767
2020-04-18 1998 1122.123 7.135 0.636
2020-04-19 1998 1122.123 0 0
2020-04-20 2001 1122.123 0 0
2020-04-21 1987 1119.723 -2.4 -0.214
2020-04-23 1999 1117.569 -2.154 -0.193
2020-04-24 1984 1126.679 9.11 0.809
2020-04-25 1992 1120.895 -5.784 -0.516
2020-04-26 1992 1120.895 0 0
2020-04-27 1998 1120.895 0 0
2020-04-28 2000 1123.945 3.05 0.271
2020-04-29 2007 1124.83 0.885 0.079
2020-04-30 2008 1132.393 7.563 0.668
2020-05-01 1995 1141.194 8.801 0.771
2020-05-02 1993 1141.194 0 0
2020-05-03 1993 1141.194 0 0
2020-05-04 1983 1141.194 0 0
2020-05-05 1993 1131.803 -9.391 -0.83
2020-05-06 1995 1133.065 1.262 0.111
2020-05-07 2001 1131.14 -1.925 -0.17
2020-05-08 2006 1131.14 0 0
2020-05-09 2010 1134.284 3.144 0.277
2020-05-10 2010 1134.284 0 0
2020-05-11 2007 1134.284 0 0
2020-05-12 2006 1131.522 -2.762 -0.244
2020-05-13 2001 1134.847 3.325 0.293
2020-05-14 1991 1135.599 0.752 0.066
2020-05-15 1996 1134.059 -1.54 -0.136
2020-05-16 1995 1134.048 -0.011 -0.001
2020-05-17 1995 1134.048 0 0
2020-05-18 1998 1134.048 0 0
2020-05-19 2012 1128.848 -5.2 -0.461
2020-05-20 2016 1132.906 4.058 0.358
2020-05-21 2014 1130.543 -2.363 -0.209
2020-05-22 2003 1133.347 2.804 0.247
2020-05-23 2001 1128.273 -5.074 -0.45
2020-05-24 2001 1128.273 0 0
2020-05-25 2001 1128.273 0 0
2020-05-26 2017 1128.273 0 0
2020-05-27 2021 1132.672 4.399 0.388
2020-05-28 2018 1131.868 -0.804 -0.071
2020-05-29 2024 1131.279 -0.589 -0.052
2020-05-30 2023 1133.329 2.05 0.181
2020-05-31 2023 1133.329 0 0
2020-06-01 2035 1133.329 0 0
2020-06-02 2049 1134.397 1.068 0.094
2020-06-03 2053 1137.144 2.747 0.242
2020-06-04 2061 1135.524 -1.62 -0.143
2020-06-05 2068 1133.909 -1.615 -0.142
2020-06-06 2072 1133.816 -0.093 -0.008
2020-06-07 2072 1133.816 0 0
2020-06-08 2070 1133.816 0 0
2020-06-09 2071 1134.566 0.75 0.066
2020-06-10 2069 1133.347 -1.219 -0.108
2020-06-11 2063 1133.609 0.262 0.023
2020-06-12 2063 1130.71 -2.899 -0.256
2020-06-13 2057 1129.798 -0.912 -0.081
2020-06-14 2057 1129.798 0 0
2020-06-15 2055 1129.798 0 0
2020-06-16 2059 1127.189 -2.609 -0.231
2020-06-17 2070 1124.572 -2.617 -0.233
2020-06-18 2069 1124.572 0 0
2020-06-19 2067 1125.402 0.83 0.074
2020-06-20 2070 1124.7 -0.702 -0.062
2020-06-21 2070 1124.7 0 0
2020-06-22 2068 1124.7 0 0
2020-06-23 2065 1127.123 2.423 0.215
2020-06-24 2065 1127.123 0 0
2020-06-25 2063 1131.682 4.559 0.403
2020-06-26 2061 1132.635 0.953 0.084
2020-06-27 2057 1132.822 0.187 0.017
2020-06-28 2057 1132.822 0 0
2020-06-29 2051 1132.822 0 0
2020-06-30 2055 1133.816 0.994 0.088
2020-07-01 2057 1135.017 1.201 0.106
2020-07-07 2077 1135.017 0 0
2020-07-08 2078 1143.669 8.652 0.757
2020-07-09 2080 1142.373 -1.296 -0.113
2020-07-10 2072 1142.669 0.296 0.026
2020-07-11 2078 1139.487 -3.182 -0.279
2020-07-12 2078 1139.487 0 0
2020-07-13 2085 1139.487 0 0
2020-07-14 2075 1139.639 0.152 0.013
2020-07-15 2077 1136.126 -3.513 -0.309
2020-07-16 2072 1136.126 0 0
2020-07-17 2069 1139.828 3.702 0.325
2020-07-18 2069 1139.828 0 0
2020-07-20 2070 1142.297 2.469 0.216
2020-07-21 2073 1142.297 0 0
2020-07-22 2075 1146.5 4.203 0.367
2020-07-23 2076 1146.365 -0.135 -0.012
2020-07-24 2069 1146.308 -0.057 -0.005
2020-07-25 2071 1145.159 -1.149 -0.1
2020-07-26 2068 1145.159 0 0
2020-07-27 2067 1145.159 0 0
2020-07-28 2068 1145.101 -0.058 -0.005
2020-07-29 2070 1144.968 -0.133 -0.012
2020-07-30 2074 1145.695 0.727 0.063
2020-07-31 2075 1145.695 0 0
2020-08-04 2074 1145.695 0 0
2020-08-05 2076 1141.993 -3.702 -0.324
2020-08-06 2087 1143.517 1.524 0.133
2020-08-07 2086 1143.631 0.114 0.01
2020-08-08 2079 1143.688 0.057 0.005
2020-08-09 2079 1143.688 0 0
2020-08-10 2083 1143.688 0 0
2020-08-12 2088 1143.688 0 0
2020-08-13 2088 1145.187 1.499 0.131
2020-08-14 2087 1145.006 -0.181 -0.016
2020-08-15 2087 1144.108 -0.898 -0.078
2020-08-16 2087 1144.108 0 0
2020-08-17 2090 1144.108 0 0
2020-08-18 2095 1144.366 0.258 0.023
2020-08-19 2094 1146.308 1.942 0.169
2020-08-20 2094 1145.256 -1.052 -0.092
2020-08-21 2094 1142.107 -3.149 -0.276
2020-08-22 2088 1144.977 2.87 0.251
2020-08-23 2088 1144.977 0 0
2020-08-24 2089 1144.977 0 0
2020-08-25 2084 1153.289 8.312 0.721
2020-08-26 2080 1153.056 -0.233 -0.02
2020-08-27 2079 1153.366 0.31 0.027
2020-08-28 2073 1161.013 7.647 0.659
2020-08-29 2074 1167.648 6.635 0.568
2020-08-30 2074 1167.648 0 0
2020-08-31 2069 1167.648 0 0
2020-09-01 2077 1164.256 -3.392 -0.291
2020-09-02 2067 1175.918 11.662 0.992
2020-09-03 2066 1173.482 -2.436 -0.208
2020-09-04 2069 1166.356 -7.126 -0.611
2020-09-05 2060 1171.797 5.441 0.464
2020-09-06 2060 1171.797 0 0
2020-09-07 2056 1171.797 0 0
2020-09-08 2058 1171.797 0 0
2020-09-09 2055 1164.296 -7.501 -0.644
2020-09-10 2058 1165.206 0.91 0.078
2020-09-11 2061 1166.554 1.348 0.116
2020-09-12 2063 1165.404 -1.15 -0.099
2020-09-13 2063 1165.404 0 0
2020-09-14 2071 1165.404 0 0
2020-09-15 2070 1166.237 0.833 0.071
2020-09-16 2072 1163.603 -2.634 -0.226
2020-09-17 2071 1165.702 2.099 0.18
2020-09-18 2076 1163.545 -2.157 -0.185
2020-09-19 2071 1166.713 3.168 0.272
2020-09-21 2061 1166.713 0 0
2020-09-22 2055 1167.557 0.844 0.072
2020-09-23 2054 1164.573 -2.984 -0.256
2020-09-24 2044 1164.81 0.237 0.02
2020-09-25 2046 1159.667 -5.143 -0.443
2020-09-26 2041 1164.335 4.668 0.401
2020-09-27 2041 1164.335 0 0
2020-09-28 2050 1164.335 0 0
2020-09-29 2047 1161.356 -2.979 -0.257
2020-09-30 2052 1160.315 -1.041 -0.09
2020-10-01 2055 1161.534 1.219 0.105
2020-10-03 2043 1171.567 10.033 0.856
2020-10-04 2043 1171.567 0 0
2020-10-05 2046 1171.567 0 0
2020-10-06 2054 1169.3 -2.267 -0.194
2020-10-07 2054 1169.3 0 0
2020-10-08 2065 1168.782 -0.518 -0.044
2020-10-09 2063 1170.058 1.276 0.109
2020-10-10 2065 1171.618 1.56 0.133
2020-10-11 2067 1171.618 0 0
2020-10-12 2070 1171.618 0 0
2020-10-13 2074 1169.539 -2.079 -0.178
2020-10-14 2073 1168.224 -1.315 -0.113
2020-10-16 2073 1167.906 -0.318 -0.027
2020-10-17 2073 1167.906 0 0
2020-10-18 2073 1167.906 0 0
2020-10-19 2070 1168.383 0.477 0.041
2020-10-20 2069 1167.985 -0.398 -0.034
2020-10-21 2074 1166.237 -1.748 -0.15
2020-10-22 2077 1164.396 -1.841 -0.158
2020-10-23 2077 1165.325 0.929 0.08
2020-10-24 2077 1164.177 -1.148 -0.099
2020-10-25 2076 1164.177 0 0
2020-10-26 2074 1164.177 0 0
2020-10-27 2074 1160.394 -3.783 -0.326
2020-10-28 2072 1162.44 2.046 0.176
2020-10-29 2069 1160.022 -2.418 -0.208
2020-10-30 2064 1156.401 -3.621 -0.313
2020-10-31 2063 1156.401 0 0
2020-11-01 2063 1156.401 0 0
2020-11-02 2072 1156.401 0 0
2020-11-03 2077 1151.449 -4.952 -0.43
2020-11-04 2080 1151.777 0.328 0.028
2020-11-05 2093 1146.615 -5.162 -0.45
2020-11-06 2092 1151.855 5.24 0.455
2020-11-07 2091 1154.863 3.008 0.26
2020-11-08 2091 1154.863 0 0
2020-11-09 2109 1154.863 0 0
2020-11-10 2111 1155.67 0.807 0.07
2020-11-11 2113 1155.065 -0.605 -0.052
2020-11-12 2114 1152.281 -2.784 -0.242
2020-11-13 2121 1148.074 -4.207 -0.366
2020-11-14 2111 1148.497 0.423 0.037
2020-11-15 2111 1148.497 0 0
2020-11-17 2125 1148.497 0 0
2020-11-18 2117 1150.965 2.468 0.214
2020-11-19 2115 1155.193 4.228 0.366
2020-11-20 2114 1153.871 -1.322 -0.115
2020-11-21 2115 1155.66 1.789 0.155
2020-11-22 2118 1155.66 0 0
2020-11-23 2120 1155.66 0 0
2020-11-24 2120 1156.42 0.76 0.066
2020-11-25 2120 1157.984 1.564 0.135
2020-11-26 2120 1159.491 1.507 0.13
2020-11-27 2128 1159.491 0 0
2020-11-28 2132 1157.201 -2.29 -0.198
2020-11-29 2132 1157.201 0 0
2020-11-30 2130 1157.201 0 0
2020-12-01 2135 1157.201 0 0
2020-12-02 2130 1163.348 6.147 0.528
2020-12-03 2130 1161.102 -2.246 -0.193
2020-12-04 2144 1159.413 -1.689 -0.146
2020-12-05 2142 1161.259 1.846 0.159
2020-12-06 2142 1161.259 0 0
2020-12-07 2140 1161.259 0 0
2020-12-08 2141 1159.609 -1.65 -0.142
2020-12-09 2141 1165.048 5.439 0.467
2020-12-10 2140 1164.929 -0.119 -0.01
2020-12-11 2140 1163.447 -1.482 -0.127
2020-12-12 2141 1163.603 0.156 0.013
2020-12-13 2141 1163.603 0 0
2020-12-14 2142 1163.603 0 0
2020-12-15 2143 1164.969 1.366 0.117
2020-12-16 2142 1164.969 0 0
2020-12-17 2155 1164.573 -0.396 -0.034
2020-12-18 2158 1164.652 0.079 0.007
2020-12-19 2159 1164.95 0.298 0.026
2020-12-20 2159 1164.95 0 0
2020-12-21 2154 1164.95 0 0
2020-12-22 2149 1161.416 -3.534 -0.304
2020-12-23 2195 1160.473 -0.943 -0.081
2020-12-24 2199 1161.829 1.356 0.117
2020-12-25 2195 1165.127 3.298 0.283
2020-12-26 2195 1165.127 0 0
2020-12-27 2195 1165.127 0 0
2020-12-28 2193 1165.127 0 0
2020-12-29 2191 1165.92 0.793 0.068
2020-12-31 2197 1169.061 3.141 0.269
2021-01-01 2186 1172.861 3.8 0.324
2021-01-02 2186 1172.861 0 0
2021-01-03 2186 1172.861 0 0
2021-01-04 2187 1172.861 0 0
2021-01-05 2197 1173.645 0.784 0.067
2021-01-06 2201 1171.098 -2.547 -0.217
2021-01-07 2202 1172.16 1.062 0.091
2021-01-08 2212 1168.911 -3.249 -0.278
2021-01-09 2208 1169.958 1.047 0.089
2021-01-10 2208 1169.958 0 0
2021-01-11 2205 1169.958 0 0
2021-01-12 2345 1017.005 -152.953 -15.04
2021-01-13 2342 1018.949 1.944 0.191
2021-01-14 2344 1020.324 1.375 0.135
2021-01-15 2343 1021.817 1.493 0.146
2021-01-16 2343 1021.477 -0.34 -0.033
2021-01-17 2343 1021.477 0 0
2021-01-18 2342 1021.477 0 0
2021-01-19 2340 1021.477 0 0
2021-01-20 2342 1020.028 -1.449 -0.142
2021-01-21 2344 1021.967 1.939 0.19
2021-01-22 2334 1022.508 0.541 0.053
2021-01-23 2334 1022.824 0.316 0.031
2021-01-24 2334 1022.824 0 0
2021-01-25 2335 1022.824 0 0
2021-01-26 2332 1023.279 0.455 0.044
2021-01-27 2336 1023.279 0 0
2021-01-28 2331 1023.525 0.246 0.024
2021-01-29 2333 1021.774 -1.751 -0.171
2021-01-30 2334 1022.999 1.225 0.12
2021-01-31 2334 1022.999 0 0
2021-02-01 2332 1022.999 0 0
2021-02-02 2331 1021.948 -1.051 -0.103
2021-02-03 2334 1022.946 0.998 0.098
2021-02-04 2335 1022.999 0.053 0.005
2021-02-05 2334 1022.981 -0.018 -0.002
2021-02-06 2336 1023.438 0.457 0.045
2021-02-07 2337 1023.438 0 0
2021-02-08 2339 1023.438 0 0
2021-02-09 2346 1022.929 -0.509 -0.05
2021-02-10 2346 1024.157 1.228 0.12
2021-02-11 2350 1024.649 0.492 0.048
2021-02-12 2347 1024.438 -0.211 -0.021
2021-02-13 2347 1025.952 1.514 0.148
2021-02-14 2347 1025.952 0 0
2021-02-15 2347 1025.952 0 0
2021-02-16 2350 1025.952 0 0
2021-02-17 2352 1026.631 0.679 0.066
2021-02-19 2350 1027.346 0.715 0.07
2021-02-20 2351 1027.346 0 0
2021-02-21 2353 1027.346 0 0
2021-02-22 2354 1027.346 0 0
2021-02-23 2355 1029.615 2.269 0.22
2021-02-24 2354 1030.076 0.461 0.045
2021-02-25 2354 1031.678 1.602 0.155
2021-02-26 2348 1030.556 -1.122 -0.109
2021-02-27 2355 1015.69 -14.866 -1.464
2021-02-28 2357 1015.69 0 0
2021-03-01 2353 1015.69 0 0
2021-03-02 2353 1014.776 -0.914 -0.09
2021-03-03 2357 1017.317 2.541 0.25
2021-03-04 2349 1026.41 9.093 0.886
2021-03-05 2346 1024.684 -1.726 -0.168
2021-03-06 2355 1022.263 -2.421 -0.237
2021-03-07 2351 1022.263 0 0
2021-03-08 2344 1022.263 0 0
2021-03-09 2343 1018.949 -3.314 -0.325
2021-03-11 2332 1023.612 4.663 0.456
2021-03-12 2341 1023.612 0 0
2021-03-13 2343 1025.299 1.687 0.165
2021-03-14 2344 1025.299 0 0
2021-03-15 2338 1025.299 0 0
2021-03-16 2341 1029.863 4.564 0.443
2021-03-18 2339 1028.868 -0.995 -0.097
2021-03-19 2339 1028.868 0 0
2021-03-20 2335 1029.17 0.302 0.029
2021-03-21 2335 1029.17 0 0
2021-03-22 2336 1029.17 0 0
2021-03-23 2334 1031.303 2.133 0.207
2021-03-24 2330 1030.608 -0.695 -0.067
2021-03-26 2332 1028.55 -2.058 -0.2
2021-03-27 2330 1029.294 0.744 0.072
2021-03-28 2330 1029.294 0 0
2021-03-29 2328 1029.294 0 0
2021-03-30 2327 1029.294 0 0
2021-03-31 2339 1017.091 -12.203 -1.2
2021-04-01 2340 1020.848 3.757 0.368
2021-04-02 2340 1020.848 0 0
2021-04-03 2340 1020.848 0 0
2021-04-04 2341 1020.848 0 0
2021-04-05 2341 1020.848 0 0
2021-04-06 2344 1018.15 -2.698 -0.265
2021-04-07 2346 1016.555 -1.595 -0.157
2021-04-08 2344 1016.555 0 0
2021-04-09 2723 1001.021 -15.534 -1.552
2021-04-17 2715 1003.907 2.886 0.287
2021-04-18 2715 1003.907 0 0
2021-04-19 2712 1003.907 0 0
2021-04-29 2722 1003.671 -0.236 -0.024
2021-04-30 2712 1008.077 4.406 0.437
2021-05-01 2713 1007.634 -0.443 -0.044
2021-05-02 2712 1007.634 0 0
2021-05-03 2709 1007.634 0 0
2021-05-04 2705 1009.764 2.13 0.211
2021-05-05 2705 1010.533 0.769 0.076
2021-05-06 2705 1009.782 -0.751 -0.074
2021-05-07 2702 1011.801 2.019 0.2
2021-05-08 2701 1015.361 3.56 0.351
2021-05-09 2702 1015.361 0 0
2021-05-10 2698 1015.361 0 0
2021-05-11 2698 1017.525 2.164 0.213
2021-05-12 2691 1017.664 0.139 0.014
2021-05-13 2683 1016.555 -1.109 -0.109
2021-05-14 2684 1016.555 0 0
2021-05-15 2685 1018.411 1.856 0.182
2021-05-16 2685 1018.411 0 0
2021-05-17 2688 1018.411 0 0
2021-05-18 2693 1019.35 0.939 0.092
2021-05-19 2692 1021.843 2.493 0.244
2021-05-20 2696 1019.976 -1.867 -0.183
2021-05-21 2697 1020.883 0.907 0.089
2021-05-22 2691 1024.755 3.872 0.378
2021-05-24 2686 1024.755 0 0
2021-05-25 2685 1024.755 0 0
2021-05-26 2683 1025.635 0.88 0.086
2021-05-27 2692 1025.635 0 0
2021-05-28 2686 1028.178 2.543 0.247
2021-05-29 2688 1030.307 2.129 0.207
2021-05-30 2689 1030.307 0 0
2021-05-31 2689 1030.307 0 0
2021-06-01 2689 1030.307 0 0
2021-06-02 2705 1023.823 -6.484 -0.633
2021-06-03 2709 1021.214 -2.609 -0.255
2021-06-04 2704 1023.684 2.47 0.241
2021-06-05 2704 1022.352 -1.332 -0.13
2021-06-06 2704 1022.352 0 0
2021-06-07 2701 1022.352 0 0
2021-06-08 2700 1025.142 2.79 0.272
2021-06-09 2703 1023.876 -1.266 -0.124
2021-06-10 2703 1022.789 -1.087 -0.106
2021-06-11 2704 1021.599 -1.19 -0.116
2021-06-12 2703 1021.441 -0.158 -0.015
2021-06-13 2703 1021.441 0 0
2021-06-14 2703 1021.441 0 0
2021-06-16 2698 1018.063 -3.378 -0.332
2021-06-17 2691 1017.923 -0.14 -0.014
2021-06-18 2694 1007.6 -10.323 -1.025
2021-06-19 2694 1007.6 0 0
2021-06-20 2690 1010.533 2.933 0.29
2021-06-21 2687 1010.533 0 0
2021-06-22 2692 1007.159 -3.374 -0.335
2021-06-23 2693 1003.604 -3.555 -0.354
2021-06-24 2693 1004.82 1.216 0.121
2021-06-25 2695 1006.378 1.558 0.155
2021-06-26 2697 1005.971 -0.407 -0.04
2021-06-27 2697 1005.971 0 0
2021-06-28 2695 1005.971 0 0
2021-06-30 2697 1005.454 -0.517 -0.051
2021-07-01 2692 1004.144 -1.31 -0.13
2021-07-02 2691 1001.08 -3.064 -0.306
2021-07-03 2702 1001.08 0 0
2021-07-04 2702 1001.08 0 0
2021-07-05 2701 1001.08 0 0
2021-07-06 2701 1001.08 0 0
2021-07-07 2686 1001.164 0.084 0.008
2021-07-08 2693 1000.292 -0.872 -0.087
2021-07-10 2695 1000.007 -0.285 -0.028
2021-07-11 2695 1000.007 0 0
2021-07-12 2693 1000.007 0 0
2021-07-13 2698 1000.827 0.82 0.082
2021-07-14 2694 1001.936 1.109 0.111
2021-07-15 2696 1000.677 -1.259 -0.126
2021-07-16 2687 1001.23 0.553 0.055
2021-07-17 2690 1000.945 -0.285 -0.028
2021-07-18 2690 1000.945 0 0
2021-07-19 2683 1000.945 0 0
2021-07-21 2679 1000.308 -0.637 -0.064
2021-07-22 2687 1000.308 0 0
2021-07-23 2684 1002.315 2.007 0.2
2021-07-24 2683 1003.115 0.8 0.08
2021-07-25 2683 1003.115 0 0
2021-07-26 2680 1003.115 0 0
2021-07-27 2667 1002.945 -0.17 -0.017
2021-07-28 2663 1002.323 -0.622 -0.062
2021-07-29 2667 1003.452 1.129 0.113
2021-07-30 2670 1004.752 1.3 0.129
2021-07-31 2671 1002.997 -1.755 -0.175
2021-08-01 2671 1002.997 0 0
2021-08-02 2672 1002.997 0 0
2021-08-03 2674 1003.975 0.978 0.097
2021-08-04 2674 1004.752 0.777 0.077
2021-08-05 2672 1006.022 1.27 0.126
2021-08-06 2667 1006.276 0.254 0.025
2021-08-07 2664 1006.53 0.254 0.025
2021-08-08 2664 1006.53 0 0
2021-08-09 2661 1006.53 0 0
2021-08-10 2667 1004.989 -1.541 -0.153
2021-08-11 2670 1002.761 -2.228 -0.222
2021-08-13 2665 1005.158 2.397 0.238
2021-08-14 2670 1005.242 0.084 0.008
2021-08-15 2670 1005.242 0 0
2021-08-16 2662 1005.242 0 0
2021-08-17 2659 1005.242 0 0
2021-08-18 2658 1003.857 -1.385 -0.138
2021-08-19 2650 1005.285 1.428 0.142
2021-08-20 2639 1005.285 0 0
2021-08-21 2643 1003.233 -2.052 -0.205
2021-08-22 2643 1003.233 0 0
2021-08-23 2641 1003.233 0 0
2021-08-24 2655 1005.734 2.501 0.249
2021-08-25 2664 1005.995 0.261 0.026
2021-08-26 2662 1005.345 -0.65 -0.065
2021-08-27 2657 1005.582 0.237 0.024
2021-08-28 2652 1012.796 7.214 0.712
2021-08-29 2652 1012.796 0 0
2021-08-30 2652 1012.796 0 0
2021-08-31 2640 1018.575 5.779 0.567
2021-09-01 2642 1022.333 3.758 0.368
2021-09-02 2649 1021.231 -1.102 -0.108
2021-09-03 2646 1021.484 0.253 0.025
2021-09-04 2650 1022.193 0.709 0.069
2021-09-05 2651 1022.193 0 0
2021-09-06 2650 1022.193 0 0
2021-09-07 2652 1022.193 0 0
2021-09-08 2656 1016.469 -5.724 -0.563
2021-09-09 2659 1014.016 -2.453 -0.242
2021-09-10 2650 1015.509 1.493 0.147
2021-09-11 2658 1015.509 0 0
2021-09-12 2657 1015.509 0 0
2021-09-13 2657 1015.509 0 0
2021-09-14 2655 1012.968 -2.541 -0.251
2021-09-15 2649 1012.933 -0.035 -0.003
2021-09-16 2637 1015.518 2.585 0.255
2021-09-17 2641 1015.241 -0.277 -0.027
2021-09-18 2643 1015.674 0.433 0.043
2021-09-19 2641 1015.674 0 0
2021-09-20 2635 1015.674 0 0
2021-09-21 2642 1012.126 -3.548 -0.351
2021-09-22 2640 1012.126 0 0
2021-09-23 2645 1010.379 -1.747 -0.173
2021-09-24 2643 1013.569 3.19 0.315
2021-09-25 2644 1012.77 -0.799 -0.079
2021-09-26 2645 1012.77 0 0
2021-09-27 2639 1012.77 0 0
2021-09-28 2636 1010.791 -1.979 -0.196
2021-09-29 2636 1007.907 -2.884 -0.286
2021-09-30 2634 1006.615 -1.292 -0.128
2021-10-01 2638 1005.53 -1.085 -0.108
2021-10-02 2641 1006.937 1.407 0.14
2021-10-03 2641 1006.937 0 0
2021-10-05 2645 1004.346 -2.591 -0.258
2021-10-06 2676 1002.492 -1.854 -0.185
2021-11-05 2684 1002.306 -0.186 -0.019
2021-11-06 2683 1002.306 0 0
2021-11-07 2683 1002.306 0 0
2021-11-08 2679 1002.306 0 0
2021-11-09 2681 1008.297 5.991 0.594
2021-11-10 2679 1008.297 0 0
2021-11-11 2688 1003.57 -4.727 -0.471
2021-11-12 2695 1001.643 -1.927 -0.192
2021-11-13 2697 1002.753 1.11 0.111
2021-11-14 2697 1002.753 0 0
2021-11-15 2689 1002.753 0 0
2021-11-16 2693 1002.08 -0.673 -0.067
2021-11-17 2682 1003.57 1.49 0.148
2021-11-18 2680 1004.921 1.351 0.134
2021-11-19 2678 1005.259 0.338 0.034
2021-11-20 2681 1005.259 0 0
2021-11-21 2681 1005.259 0 0
2021-11-22 2672 1005.259 0 0
2021-11-23 2668 1003.13 -2.129 -0.212
2021-11-24 2665 1002.896 -0.234 -0.023
2021-11-25 2668 1003.233 0.337 0.034
2021-11-26 2657 1003.233 0 0
2021-12-31 2659 1002.896 -0.337 -0.034
