2019-11-07 1862 1256.648 0 0
2020-01-19 1911 1254.823 -1.825 -0.145
2020-02-07 1882 1252.501 -2.322 -0.185
2020-02-15 1887 1249.977 -2.524 -0.202
2020-02-16 1887 1249.977 0 0
2020-02-17 1890 1249.977 0 0
2020-02-18 1886 1249.977 0 0
2020-02-19 1891 1246.594 -3.383 -0.271
2020-02-20 1891 1246.594 0 0
2020-02-21 1884 1245.071 -1.523 -0.122
2020-02-22 1887 1245.071 0 0
2020-02-23 1885 1245.071 0 0
2020-02-24 1876 1245.071 0 0
2020-02-25 1863 1238.868 -6.203 -0.498
2020-02-26 1854 1240.945 2.077 0.168
2020-02-27 1845 1244.746 3.801 0.306
2020-02-28 1836 1246.223 1.477 0.119
2020-02-29 1832 1236.013 -10.21 -0.819
2020-03-01 1837 1236.013 0 0
2020-03-02 1843 1236.013 0 0
2020-03-03 1861 1226.623 -9.39 -0.76
2020-03-04 1878 1216.958 -9.665 -0.788
2020-03-05 1874 1218.163 1.205 0.099
2020-03-06 1925 1169.021 -49.142 -4.034
2020-03-07 1937 1161.81 -7.211 -0.617
2020-03-08 1934 1161.81 0 0
2020-03-09 1903 1161.81 0 0
2020-03-10 1899 1156.713 -5.097 -0.439
2020-03-11 1875 1156.713 0 0
2020-03-12 1833 1163.782 7.069 0.611
2020-03-13 1828 1154.687 -9.095 -0.782
2020-03-14 1826 1159.452 4.765 0.413
2020-03-15 1827 1159.452 0 0
2020-03-16 1796 1159.452 0 0
2020-03-17 1787 1153.841 -5.611 -0.484
2020-03-18 1763 1154.163 0.322 0.028
2020-03-19 1738 1154.045 -0.118 -0.01
2020-03-20 1760 1142.83 -11.215 -0.972
2020-03-21 1766 1139.715 -3.115 -0.273
2020-03-22 1766 1139.715 0 0
2020-03-23 1746 1139.715 0 0
2020-03-24 1760 1118.462 -21.253 -1.865
2020-03-25 1792 1129.091 10.629 0.95
2020-03-26 1815 1129.091 0 0
2020-03-27 1823 1140.359 11.268 0.998
2020-03-28 1814 1145.006 4.647 0.408
2020-03-29 1814 1145.006 0 0
2020-03-30 1814 1145.006 0 0
2020-03-31 1819 1133.272 -11.734 -1.025
2020-04-01 1822 1132.803 -0.469 -0.041
2020-04-02 1804 1132.803 0 0
2020-04-03 1810 1132.803 0 0
2020-04-04 1810 1125.089 -7.714 -0.681
2020-04-05 1810 1125.089 0 0
2020-04-06 1810 1125.089 0 0
2020-04-07 1837 1125.089 0 0
2020-04-08 1971 1133.122 8.033 0.714
2020-04-09 1992 1122.657 -10.465 -0.924
2020-04-10 1993 1123.282 0.625 0.056
2020-04-11 1993 1123.282 0 0
2020-04-12 1993 1123.282 0 0
2020-04-13 1994 1123.282 0 0
2020-04-14 2002 1123.54 0.258 0.023
2020-04-15 1995 1123.54 0 0
2020-04-16 1991 1121.151 -2.389 -0.213
2020-04-17 2007 1114.988 -6.163 -0.55
2020-04-18 1998 1122.123 7.135 0.64
2020-04-19 1998 1122.123 0 0
2020-04-20 2001 1122.123 0 0
2020-04-21 1987 1119.723 -2.4 -0.214
2020-04-23 1999 1117.569 -2.154 -0.192
2020-04-24 1984 1126.679 9.11 0.815
2020-04-25 1992 1120.895 -5.784 -0.513
2020-04-26 1992 1120.895 0 0
2020-04-27 1998 1120.895 0 0
2020-04-28 2000 1123.945 3.05 0.272
2020-04-29 2007 1124.83 0.885 0.079
2020-04-30 2008 1132.393 7.563 0.672
2020-05-01 1995 1141.194 8.801 0.777
2020-05-02 1993 1141.194 0 0
2020-05-03 1993 1141.194 0 0
2020-05-04 1983 1141.194 0 0
2020-05-05 1993 1131.803 -9.391 -0.823
2020-05-06 1995 1133.065 1.262 0.112
2020-05-07 2001 1131.14 -1.925 -0.17
2020-05-08 2006 1131.14 0 0
2020-05-09 2010 1134.284 3.144 0.278
2020-05-10 2010 1134.284 0 0
2020-05-11 2007 1134.284 0 0
2020-05-12 2006 1131.522 -2.762 -0.244
2020-05-13 2001 1134.847 3.325 0.294
2020-05-14 1991 1135.599 0.752 0.066
2020-05-15 1996 1134.059 -1.54 -0.136
2020-05-16 1995 1134.048 -0.011 -0.001
2020-05-17 1995 1134.048 0 0
2020-05-18 1998 1134.048 0 0
2020-05-19 2012 1128.848 -5.2 -0.459
2020-05-20 2016 1132.906 4.058 0.359
2020-05-21 2014 1130.543 -2.363 -0.209
2020-05-23 2001 1128.273 -2.27 -0.201
2020-05-24 2001 1128.273 0 0
2020-05-25 2001 1128.273 0 0
2020-05-26 2017 1128.273 0 0
2020-05-27 2021 1132.672 4.399 0.39
2020-05-28 2018 1131.868 -0.804 -0.071
2020-05-29 2024 1131.279 -0.589 -0.052
2020-05-30 2023 1133.329 2.05 0.181
2020-05-31 2023 1133.329 0 0
2020-06-01 2035 1133.329 0 0
2020-06-02 2049 1134.397 1.068 0.094
2020-06-03 2053 1137.144 2.747 0.242
2020-06-04 2061 1135.524 -1.62 -0.142
2020-06-05 2068 1133.909 -1.615 -0.142
2020-06-06 2072 1133.816 -0.093 -0.008
2020-06-07 2072 1133.816 0 0
2020-06-08 2070 1133.816 0 0
2020-06-09 2071 1134.566 0.75 0.066
2020-06-10 2069 1133.347 -1.219 -0.107
2020-06-11 2063 1133.609 0.262 0.023
2020-06-12 2063 1130.71 -2.899 -0.256
2020-06-13 2057 1129.798 -0.912 -0.081
2020-06-14 2057 1129.798 0 0
2020-06-15 2055 1129.798 0 0
2020-06-16 2059 1127.189 -2.609 -0.231
2020-06-17 2070 1124.572 -2.617 -0.232
2020-06-18 2069 1124.572 0 0
2020-06-19 2067 1125.402 0.83 0.074
2020-06-20 2070 1124.7 -0.702 -0.062
2020-06-21 2070 1124.7 0 0
2020-06-22 2068 1124.7 0 0
2020-06-23 2065 1127.123 2.423 0.215
2020-06-24 2065 1127.123 0 0
2020-06-25 2063 1131.682 4.559 0.404
2020-06-26 2061 1132.635 0.953 0.084
2020-06-27 2057 1132.822 0.187 0.017
2020-06-28 2057 1132.822 0 0
2020-06-29 2051 1132.822 0 0
2020-06-30 2055 1133.816 0.994 0.088
2020-07-01 2057 1135.017 1.201 0.106
2020-07-07 2077 1135.017 0 0
2020-07-08 2078 1143.669 8.652 0.762
2020-07-09 2080 1142.373 -1.296 -0.113
2020-07-10 2072 1142.669 0.296 0.026
2020-07-11 2078 1139.487 -3.182 -0.278
2020-07-12 2078 1139.487 0 0
2020-07-13 2085 1139.487 0 0
2020-07-14 2075 1139.639 0.152 0.013
2020-07-15 2077 1136.126 -3.513 -0.308
2020-07-16 2072 1136.126 0 0
2020-07-17 2069 1139.828 3.702 0.326
2020-07-18 2069 1139.828 0 0
2020-07-20 2070 1142.297 2.469 0.217
2020-07-21 2073 1142.297 0 0
2020-07-22 2075 1146.5 4.203 0.368
2020-07-23 2076 1146.365 -0.135 -0.012
2020-07-24 2069 1146.308 -0.057 -0.005
2020-07-25 2071 1145.159 -1.149 -0.1
2020-07-26 2068 1145.159 0 0
2020-07-27 2067 1145.159 0 0
2020-07-28 2068 1145.101 -0.058 -0.005
2020-07-29 2070 1144.968 -0.133 -0.012
2020-07-30 2074 1145.695 0.727 0.063
2020-07-31 2075 1145.695 0 0
2020-08-04 2074 1145.695 0 0
2020-08-05 2076 1141.993 -3.702 -0.323
2020-08-06 2087 1143.517 1.524 0.133
2020-08-07 2086 1143.631 0.114 0.01
2020-08-08 2079 1143.688 0.057 0.005
2020-08-09 2079 1143.688 0 0
2020-08-10 2083 1143.688 0 0
2020-08-12 2088 1143.688 0 0
2020-08-13 2088 1145.187 1.499 0.131
2020-08-14 2087 1145.006 -0.181 -0.016
2020-08-15 2087 1144.108 -0.898 -0.078
2020-08-16 2087 1144.108 0 0
2020-08-17 2090 1144.108 0 0
2020-08-18 2095 1144.366 0.258 0.023
2020-08-19 2094 1146.308 1.942 0.17
2020-08-20 2094 1145.256 -1.052 -0.092
2020-08-21 2094 1142.107 -3.149 -0.275
2020-08-22 2088 1144.977 2.87 0.251
2020-08-23 2088 1144.977 0 0
2020-08-24 2089 1144.977 0 0
2020-08-25 2084 1153.289 8.312 0.726
2020-08-26 2080 1153.056 -0.233 -0.02
2020-08-27 2079 1153.366 0.31 0.027
2020-08-28 2073 1161.013 7.647 0.663
2020-08-29 2074 1167.648 6.635 0.571
2020-08-30 2074 1167.648 0 0
2020-08-31 2069 1167.648 0 0
2020-09-01 2077 1164.256 -3.392 -0.29
2020-09-02 2067 1175.918 11.662 1.002
2020-09-03 2066 1173.482 -2.436 -0.207
2020-09-04 2069 1166.356 -7.126 -0.607
2020-09-05 2060 1171.797 5.441 0.466
2020-09-06 2060 1171.797 0 0
2020-09-07 2056 1171.797 0 0
2020-09-09 2055 1164.296 -7.501 -0.64
2020-09-10 2058 1165.206 0.91 0.078
2020-09-11 2061 1166.554 1.348 0.116
2020-09-12 2063 1165.404 -1.15 -0.099
2020-09-13 2063 1165.404 0 0
2020-09-14 2071 1165.404 0 0
2020-09-15 2070 1166.237 0.833 0.071
2020-09-16 2072 1163.603 -2.634 -0.226
2020-09-17 2071 1165.702 2.099 0.18
2020-09-18 2076 1163.545 -2.157 -0.185
2020-09-19 2071 1166.713 3.168 0.272
2020-09-21 2061 1166.713 0 0
2020-09-22 2055 1167.557 0.844 0.072
2020-09-23 2054 1164.573 -2.984 -0.256
2020-09-24 2044 1164.81 0.237 0.02
2020-09-25 2046 1159.667 -5.143 -0.442
2020-09-26 2041 1164.335 4.668 0.403
2020-09-27 2041 1164.335 0 0
2020-09-28 2050 1164.335 0 0
2020-09-29 2047 1161.356 -2.979 -0.256
2020-09-30 2052 1160.315 -1.041 -0.09
2020-10-01 2055 1161.534 1.219 0.105
2020-10-03 2043 1171.567 10.033 0.864
2020-10-04 2043 1171.567 0 0
2020-10-05 2046 1171.567 0 0
2020-10-06 2054 1169.3 -2.267 -0.194
2020-10-07 2054 1169.3 0 0
2020-10-08 2065 1168.782 -0.518 -0.044
2020-10-09 2063 1170.058 1.276 0.109
2020-10-10 2065 1171.618 1.56 0.133
2020-10-11 2067 1171.618 0 0
2020-10-12 2070 1171.618 0 0
2020-10-13 2074 1169.539 -2.079 -0.177
2020-10-14 2073 1168.224 -1.315 -0.112
2020-10-16 2073 1167.906 -0.318 -0.027
2020-10-17 2073 1167.906 0 0
2020-10-18 2073 1167.906 0 0
2020-10-19 2070 1168.383 0.477 0.041
2020-10-20 2069 1167.985 -0.398 -0.034
2020-10-21 2074 1166.237 -1.748 -0.15
2020-10-22 2077 1164.396 -1.841 -0.158
2020-10-23 2077 1165.325 0.929 0.08
2020-10-24 2077 1164.177 -1.148 -0.099
2020-10-25 2076 1164.177 0 0
2020-10-26 2074 1164.177 0 0
2020-10-27 2074 1160.394 -3.783 -0.325
2020-10-28 2072 1162.44 2.046 0.176
2020-10-29 2069 1160.022 -2.418 -0.208
2020-10-30 2064 1156.401 -3.621 -0.312
2020-10-31 2063 1156.401 0 0
2020-11-01 2063 1156.401 0 0
2020-11-02 2072 1156.401 0 0
2020-11-03 2077 1151.449 -4.952 -0.428
2020-11-04 2080 1151.777 0.328 0.028
2020-11-05 2093 1146.615 -5.162 -0.448
2020-11-06 2092 1151.855 5.24 0.457
2020-11-07 2091 1154.863 3.008 0.261
2020-11-08 2091 1154.863 0 0
2020-11-09 2109 1154.863 0 0
2020-11-10 2111 1155.67 0.807 0.07
2020-11-12 2114 1152.281 -3.389 -0.293
2020-11-13 2121 1148.074 -4.207 -0.365
2020-11-14 2111 1148.497 0.423 0.037
2020-11-15 2111 1148.497 0 0
2020-11-17 2125 1148.497 0 0
2020-11-18 2117 1150.965 2.468 0.215
2020-11-19 2115 1155.193 4.228 0.367
2020-11-20 2114 1153.871 -1.322 -0.114
2020-11-21 2115 1155.66 1.789 0.155
2020-11-22 2118 1155.66 0 0
2020-11-23 2120 1155.66 0 0
2020-11-24 2120 1156.42 0.76 0.066
2020-11-25 2120 1157.984 1.564 0.135
2020-11-26 2120 1159.491 1.507 0.13
2020-11-27 2128 1159.491 0 0
2020-11-28 2132 1157.201 -2.29 -0.198
2020-11-30 2130 1157.201 0 0
2020-12-01 2135 1157.201 0 0
2020-12-02 2130 1163.348 6.147 0.531
2020-12-03 2130 1161.102 -2.246 -0.193
2020-12-04 2144 1159.413 -1.689 -0.145
2020-12-05 2142 1161.259 1.846 0.159
2020-12-06 2142 1161.259 0 0
2020-12-07 2140 1161.259 0 0
2020-12-08 2141 1159.609 -1.65 -0.142
2020-12-09 2141 1165.048 5.439 0.469
2020-12-10 2140 1164.929 -0.119 -0.01
2020-12-11 2140 1163.447 -1.482 -0.127
2020-12-12 2141 1163.603 0.156 0.013
2020-12-13 2141 1163.603 0 0
2020-12-14 2142 1163.603 0 0
2020-12-15 2143 1164.969 1.366 0.117
2020-12-16 2142 1164.969 0 0
2020-12-17 2155 1164.573 -0.396 -0.034
2020-12-18 2158 1164.652 0.079 0.007
2020-12-19 2159 1164.95 0.298 0.026
2020-12-20 2159 1164.95 0 0
2020-12-21 2154 1164.95 0 0
2020-12-22 2149 1161.416 -3.534 -0.303
2020-12-23 2195 1160.473 -0.943 -0.081
2020-12-24 2199 1161.829 1.356 0.117
2020-12-25 2195 1165.127 3.298 0.284
2020-12-26 2195 1165.127 0 0
2020-12-27 2195 1165.127 0 0
2020-12-28 2193 1165.127 0 0
2020-12-29 2191 1165.92 0.793 0.068
2020-12-31 2197 1169.061 3.141 0.269
2021-01-01 2186 1172.861 3.8 0.325
2021-01-02 2186 1172.861 0 0
2021-01-03 2186 1172.861 0 0
2021-01-04 2187 1172.861 0 0
2021-01-05 2197 1173.645 0.784 0.067
2021-01-06 2201 1171.098 -2.547 -0.217
2021-01-07 2202 1172.16 1.062 0.091
2021-01-08 2212 1168.911 -3.249 -0.277
2021-01-09 2208 1169.958 1.047 0.09
2021-01-10 2208 1169.958 0 0
2021-01-11 2205 1169.958 0 0
2021-01-12 2345 1017.005 -152.953 -13.073
2021-01-13 2342 1018.949 1.944 0.191
2021-01-14 2344 1020.324 1.375 0.135
2021-01-15 2343 1021.817 1.493 0.146
2021-01-16 2343 1021.477 -0.34 -0.033
2021-01-17 2343 1021.477 0 0
2021-01-18 2342 1021.477 0 0
2021-01-19 2340 1021.477 0 0
2021-01-20 2342 1020.028 -1.449 -0.142
2021-01-21 2344 1021.967 1.939 0.19
2021-01-22 2334 1022.508 0.541 0.053
2021-01-23 2334 1022.824 0.316 0.031
2021-01-24 2334 1022.824 0 0
2021-01-25 2335 1022.824 0 0
2021-01-26 2332 1023.279 0.455 0.044
2021-01-27 2336 1023.279 0 0
2021-01-28 2331 1023.525 0.246 0.024
2021-01-29 2333 1021.774 -1.751 -0.171
2021-01-30 2334 1022.999 1.225 0.12
2021-01-31 2334 1022.999 0 0
