2020-01-19 1911 1254.823 0 0
2020-02-07 1882 1252.501 -2.322 -0.185
2020-02-15 1887 1249.977 -2.524 -0.202
2020-02-16 1887 1249.977 0 0
2020-02-17 1890 1249.977 0 0
2020-02-18 1886 1249.977 0 0
2020-02-19 1891 1246.594 -3.383 -0.271
2020-02-20 1891 1246.594 0 0
2020-02-21 1884 1245.071 -1.523 -0.122
2020-02-22 1887 1245.071 0 0
2020-02-23 1885 1245.071 0 0
2020-02-24 1876 1245.071 0 0
2020-02-25 1863 1238.868 -6.203 -0.501
2020-02-26 1854 1240.945 2.077 0.167
2020-02-27 1845 1244.746 3.801 0.305
2020-02-28 1836 1246.223 1.477 0.119
2020-02-29 1832 1236.013 -10.21 -0.826
2020-03-01 1837 1236.013 0 0
2020-03-02 1843 1236.013 0 0
2020-03-03 1861 1226.623 -9.39 -0.766
2020-03-04 1878 1216.958 -9.665 -0.794
2020-03-05 1874 1218.163 1.205 0.099
2020-03-06 1925 1169.021 -49.142 -4.204
2020-03-07 1937 1161.81 -7.211 -0.621
2020-03-08 1934 1161.81 0 0
2020-03-09 1903 1161.81 0 0
2020-03-10 1899 1156.713 -5.097 -0.441
2020-03-11 1875 1156.713 0 0
2020-03-12 1833 1163.782 7.069 0.607
2020-03-13 1828 1154.687 -9.095 -0.788
2020-03-14 1826 1159.452 4.765 0.411
2020-03-15 1827 1159.452 0 0
2020-03-16 1796 1159.452 0 0
2020-03-17 1787 1153.841 -5.611 -0.486
2020-03-18 1763 1154.163 0.322 0.028
2020-03-19 1738 1154.045 -0.118 -0.01
2020-03-20 1760 1142.83 -11.215 -0.981
2020-03-21 1766 1139.715 -3.115 -0.273
2020-03-22 1766 1139.715 0 0
2020-03-23 1746 1139.715 0 0
2020-03-24 1760 1118.462 -21.253 -1.9
2020-03-25 1792 1129.091 10.629 0.941
2020-03-26 1815 1129.091 0 0
2020-03-27 1823 1140.359 11.268 0.988
2020-03-28 1814 1145.006 4.647 0.406
2020-03-29 1814 1145.006 0 0
2020-03-30 1814 1145.006 0 0
2020-03-31 1819 1133.272 -11.734 -1.035
2020-04-01 1822 1132.803 -0.469 -0.041
2020-04-02 1804 1132.803 0 0
2020-04-03 1810 1132.803 0 0
2020-04-04 1810 1125.089 -7.714 -0.686
2020-04-05 1810 1125.089 0 0
2020-04-06 1810 1125.089 0 0
2020-04-07 1837 1125.089 0 0
2020-04-08 1971 1133.122 8.033 0.709
2020-04-10 1993 1123.282 -9.84 -0.876
2020-04-11 1993 1123.282 0 0
2020-04-12 1993 1123.282 0 0
2020-04-13 1994 1123.282 0 0
2020-04-14 2002 1123.54 0.258 0.023
2020-04-15 1995 1123.54 0 0
2020-04-17 2007 1114.988 -8.552 -0.767
2020-04-18 1998 1122.123 7.135 0.636
2020-04-19 1998 1122.123 0 0
2020-04-20 2001 1122.123 0 0
2020-04-21 1987 1119.723 -2.4 -0.214
2020-04-23 1999 1117.569 -2.154 -0.193
2020-04-24 1984 1126.679 9.11 0.809
2020-04-25 1992 1120.895 -5.784 -0.516
2020-04-26 1992 1120.895 0 0
2020-04-27 1998 1120.895 0 0
2020-04-28 2000 1123.945 3.05 0.271
2020-04-29 2007 1124.83 0.885 0.079
2020-04-30 2008 1132.393 7.563 0.668
2020-05-01 1995 1141.194 8.801 0.771
2020-05-02 1993 1141.194 0 0
2020-05-03 1993 1141.194 0 0
2020-05-04 1983 1141.194 0 0
2020-05-05 1993 1131.803 -9.391 -0.83
2020-05-06 1995 1133.065 1.262 0.111
2020-05-07 2001 1131.14 -1.925 -0.17
2020-05-08 2006 1131.14 0 0
2020-05-09 2010 1134.284 3.144 0.277
2020-05-10 2010 1134.284 0 0
2020-05-11 2007 1134.284 0 0
2020-05-12 2006 1131.522 -2.762 -0.244
2020-05-13 2001 1134.847 3.325 0.293
2020-05-14 1991 1135.599 0.752 0.066
2020-05-15 1996 1134.059 -1.54 -0.136
2020-05-16 1995 1134.048 -0.011 -0.001
2020-05-17 1995 1134.048 0 0
2020-05-18 1998 1134.048 0 0
2020-05-19 2012 1128.848 -5.2 -0.461
2020-05-20 2016 1132.906 4.058 0.358
2020-05-21 2014 1130.543 -2.363 -0.209
2020-05-22 2003 1133.347 2.804 0.247
2020-05-23 2001 1128.273 -5.074 -0.45
2020-05-24 2001 1128.273 0 0
2020-05-25 2001 1128.273 0 0
2020-05-26 2017 1128.273 0 0
2020-05-27 2021 1132.672 4.399 0.388
2020-05-28 2018 1131.868 -0.804 -0.071
2020-05-29 2024 1131.279 -0.589 -0.052
2020-05-30 2023 1133.329 2.05 0.181
2020-05-31 2023 1133.329 0 0
